5.00155 870.000
5.01980 931.000
5.03805 842.000
5.05630 890.000
5.07455 778.000
5.09281 795.000
5.11106 829.000
5.12931 786.000
5.14756 795.000
5.16581 811.000
5.18407 733.000
5.20232 767.000
5.22057 765.000
5.23882 773.000
5.25708 809.000
5.27533 701.000
5.29358 762.000
5.31183 694.000
5.33008 784.000
5.34834 724.000
5.36659 722.000
5.38484 710.000
5.40309 679.000
5.42134 678.000
5.43960 683.000
5.45785 632.000
5.47610 716.000
5.49435 718.000
5.51260 636.000
5.53086 677.000
5.54911 674.000
5.56736 639.000
5.58561 665.000
5.60387 700.000
5.62212 672.000
5.64037 607.000
5.65862 624.000
5.67687 618.000
5.69513 626.000
5.71338 593.000
5.73163 563.000
5.74988 557.000
5.76813 566.000
5.78639 602.000
5.80464 567.000
5.82289 555.000
5.84114 543.000
5.85939 554.000
5.87765 510.000
5.89590 503.000
5.91415 513.000
5.93240 537.000
5.95065 511.000
5.96891 540.000
5.98716 530.000
6.00541 509.000
6.02366 502.000
6.04192 510.000
6.06017 507.000
6.07842 521.000
6.09667 517.000
6.11492 488.000
6.13318 541.000
6.15143 515.000
6.16968 479.000
6.18793 572.000
6.20618 508.000
6.22444 489.000
6.24269 482.000
6.26094 515.000
6.27919 485.000
6.29744 481.000
6.31570 520.000
6.33395 464.000
6.35220 547.000
6.37045 490.000
6.38871 480.000
6.40696 514.000
6.42521 503.000
6.44346 505.000
6.46171 560.000
6.47997 604.000
6.49822 569.000
6.51647 634.000
6.53472 656.000
6.55297 685.000
6.57123 759.000
6.58948 830.000
6.60773 920.000
6.62598 1011.000
6.64423 1225.000
6.66249 1390.000
6.68074 1602.000
6.69899 1922.000
6.71724 2321.000
6.73550 2668.000
6.75375 3143.000
6.77200 3554.000
6.79025 3663.000
6.80850 3851.000
6.82676 3755.000
6.84501 3541.000
6.86326 3052.000
6.88151 2511.000
6.89976 1928.000
6.91802 1444.000
6.93627 1134.000
6.95452 860.000
6.97277 803.000
6.99102 592.000
7.00928 602.000
7.02753 566.000
7.04578 524.000
7.06403 504.000
7.08228 460.000
7.10054 500.000
7.11879 441.000
7.13704 417.000
7.15529 431.000
7.17355 414.000
7.19180 434.000
7.21005 367.000
7.22830 416.000
7.24655 380.000
7.26481 403.000
7.28306 375.000
7.30131 403.000
7.31956 345.000
7.33781 408.000
7.35607 390.000
7.37432 383.000
7.39257 343.000
7.41082 369.000
7.42907 376.000
7.44733 388.000
7.46558 369.000
7.48383 377.000
7.50208 343.000
7.52034 389.000
7.53859 399.000
7.55684 390.000
7.57509 389.000
7.59334 370.000
7.61160 368.000
7.62985 358.000
7.64810 373.000
7.66635 451.000
7.68460 423.000
7.70286 403.000
7.72111 380.000
7.73936 470.000
7.75761 440.000
7.77586 465.000
7.79412 523.000
7.81237 556.000
7.83062 559.000
7.84887 532.000
7.86712 443.000
7.88538 418.000
7.90363 444.000
7.92188 428.000
7.94013 408.000
7.95839 431.000
7.97664 406.000
7.99489 441.000
8.01314 409.000
8.03139 412.000
8.04965 489.000
8.06790 468.000
8.08615 559.000
8.10440 545.000
8.12265 632.000
8.14091 697.000
8.15916 762.000
8.17741 929.000
8.19566 1043.000
8.21391 1193.000
8.23217 1360.000
8.25042 1607.000
8.26867 1825.000
8.28692 2243.000
8.30518 2713.000
8.32343 3105.000
8.34168 3573.000
8.35993 3982.000
8.37818 4039.000
8.39644 3786.000
8.41469 3284.000
8.43294 2742.000
8.45119 1983.000
8.46944 1546.000
8.48770 1241.000
8.50595 952.000
8.52420 831.000
8.54245 729.000
8.56070 625.000
8.57896 635.000
8.59721 600.000
8.61546 581.000
8.63371 607.000
8.65197 524.000
8.67022 514.000
8.68847 524.000
8.70672 448.000
8.72497 390.000
8.74323 429.000
8.76148 363.000
8.77973 368.000
8.79798 390.000
8.81623 351.000
8.83449 408.000
8.85274 369.000
8.87099 349.000
8.88924 361.000
8.90749 344.000
8.92575 315.000
8.94400 333.000
8.96225 372.000
8.98050 337.000
8.99875 393.000
9.01701 310.000
9.03526 333.000
9.05351 322.000
9.07176 362.000
9.09002 318.000
9.10827 363.000
9.12652 359.000
9.14477 322.000
9.16302 303.000
9.18128 332.000
9.19953 346.000
9.21778 328.000
9.23603 323.000
9.25428 326.000
9.27254 308.000
9.29079 339.000
9.30904 313.000
9.32729 313.000
9.34554 327.000
9.36380 311.000
9.38205 353.000
9.40030 371.000
9.41855 360.000
9.43681 386.000
9.45506 343.000
9.47331 402.000
9.49156 415.000
9.50981 306.000
9.52807 362.000
9.54632 396.000
9.56457 316.000
9.58282 343.000
9.60107 325.000
9.61933 333.000
9.63758 327.000
9.65583 348.000
9.67408 326.000
9.69233 352.000
9.71059 324.000
9.72884 335.000
9.74709 316.000
9.76534 400.000
9.78360 325.000
9.80185 370.000
9.82010 362.000
9.83835 388.000
9.85660 396.000
9.87486 398.000
9.89311 373.000
9.91136 333.000
9.92961 315.000
9.94786 326.000
9.96612 300.000
9.98437 305.000
10.00262 317.000
10.02087 336.000
10.03912 285.000
10.05738 293.000
10.07563 320.000
10.09388 306.000
10.11213 332.000
10.13038 292.000
10.14864 315.000
10.16689 283.000
10.18514 300.000
10.20339 314.000
10.22165 306.000
10.23990 325.000
10.25815 335.000
10.27640 334.000
10.29465 330.000
10.31291 363.000
10.33116 319.000
10.34941 332.000
10.36766 369.000
10.38591 402.000
10.40417 403.000
10.42242 480.000
10.44067 418.000
10.45892 488.000
10.47717 560.000
10.49543 676.000
10.51368 691.000
10.53193 807.000
10.55018 818.000
10.56844 832.000
10.58669 772.000
10.60494 712.000
10.62319 645.000
10.64144 591.000
10.65970 448.000
10.67795 406.000
10.69620 382.000
10.71445 383.000
10.73270 401.000
10.75096 380.000
10.76921 376.000
10.78746 351.000
10.80571 369.000
10.82396 388.000
10.84222 341.000
10.86047 337.000
10.87872 353.000
10.89697 345.000
10.91522 377.000
10.93348 332.000
10.95173 342.000
10.96998 362.000
10.98823 317.000
11.00649 329.000
11.02474 337.000
11.04299 298.000
11.06124 295.000
11.07949 280.000
11.09775 278.000
11.11600 287.000
11.13425 293.000
11.15250 282.000
11.17075 293.000
11.18901 280.000
11.20726 297.000
11.22551 340.000
11.24376 305.000
11.26201 279.000
11.28027 284.000
11.29852 273.000
11.31677 284.000
11.33502 298.000
11.35328 298.000
11.37153 318.000
11.38978 291.000
11.40803 280.000
11.42628 283.000
11.44454 267.000
11.46279 281.000
11.48104 302.000
11.49929 276.000
11.51754 260.000
11.53580 300.000
11.55405 330.000
11.57230 281.000
11.59055 285.000
11.60880 286.000
11.62706 320.000
11.64531 292.000
11.66356 283.000
11.68181 267.000
11.70007 305.000
11.71832 293.000
11.73657 290.000
11.75482 281.000
11.77307 271.000
11.79133 319.000
11.80958 301.000
11.82783 313.000
11.84608 266.000
11.86433 319.000
11.88259 296.000
11.90084 299.000
11.91909 279.000
11.93734 297.000
11.95559 275.000
11.97385 268.000
11.99210 311.000
12.01035 289.000
12.02860 301.000
12.04685 316.000
12.06511 293.000
12.08336 291.000
12.10161 270.000
12.11986 267.000
12.13812 293.000
12.15637 324.000
12.17462 273.000
12.19287 309.000
12.21112 265.000
12.22938 256.000
12.24763 306.000
12.26588 315.000
12.28413 283.000
12.30238 305.000
12.32064 295.000
12.33889 285.000
12.35714 310.000
12.37539 297.000
12.39364 317.000
12.41190 280.000
12.43015 278.000
12.44840 273.000
12.46665 295.000
12.48491 306.000
12.50316 273.000
12.52141 294.000
12.53966 300.000
12.55791 290.000
12.57617 282.000
12.59442 310.000
12.61267 309.000
12.63092 298.000
12.64917 284.000
12.66743 314.000
12.68568 284.000
12.70393 291.000
12.72218 294.000
12.74043 322.000
12.75869 287.000
12.77694 278.000
12.79519 304.000
12.81344 325.000
12.83170 288.000
12.84995 298.000
12.86820 371.000
12.88645 325.000
12.90470 318.000
12.92296 296.000
12.94121 307.000
12.95946 329.000
12.97771 329.000
12.99596 350.000
13.01422 363.000
13.03247 321.000
13.05072 380.000
13.06897 388.000
13.08722 429.000
13.10548 524.000
13.12373 589.000
13.14198 599.000
13.16023 618.000
13.17848 662.000
13.19674 707.000
13.21499 658.000
13.23324 685.000
13.25149 664.000
13.26975 688.000
13.28800 711.000
13.30625 709.000
13.32450 730.000
13.34275 823.000
13.36101 819.000
13.37926 824.000
13.39751 884.000
13.41576 802.000
13.43401 902.000
13.45227 872.000
13.47052 971.000
13.48877 1036.000
13.50702 1209.000
13.52527 1197.000
13.54353 1235.000
13.56178 1236.000
13.58003 1196.000
13.59828 1109.000
13.61654 997.000
13.63479 884.000
13.65304 907.000
13.67129 771.000
13.68954 711.000
13.70780 652.000
13.72605 618.000
13.74430 527.000
13.76255 478.000
13.78080 445.000
13.79906 426.000
13.81731 410.000
13.83556 384.000
13.85381 380.000
13.87206 374.000
13.89032 362.000
13.90857 349.000
13.92682 372.000
13.94507 331.000
13.96332 327.000
13.98158 328.000
13.99983 322.000
14.01808 333.000
14.03633 329.000
14.05459 335.000
14.07284 338.000
14.09109 357.000
14.10934 334.000
14.12759 341.000
14.14585 339.000
14.16410 346.000
14.18235 350.000
14.20060 349.000
14.21885 372.000
14.23711 338.000
14.25536 359.000
14.27361 358.000
14.29186 368.000
14.31011 373.000
14.32837 355.000
14.34662 370.000
14.36487 366.000
14.38312 371.000
14.40138 414.000
14.41963 417.000
14.43788 446.000
14.45613 471.000
14.47438 502.000
14.49264 542.000
14.51089 589.000
14.52914 697.000
14.54739 722.000
14.56564 884.000
14.58390 1014.000
14.60215 1244.000
14.62040 1398.000
14.63865 1562.000
14.65690 1754.000
14.67516 1864.000
14.69341 1680.000
14.71166 1558.000
14.72991 1373.000
14.74817 1193.000
14.76642 1044.000
14.78467 855.000
14.80292 812.000
14.82117 877.000
14.83943 929.000
14.85768 944.000
14.87593 1142.000
14.89418 1088.000
14.91243 1235.000
14.93069 1160.000
14.94894 1093.000
14.96719 970.000
14.98544 819.000
15.00369 672.000
15.02195 636.000
15.04020 526.000
15.05845 484.000
15.07670 472.000
15.09495 415.000
15.11321 424.000
15.13146 386.000
15.14971 404.000
15.16796 398.000
15.18622 390.000
15.20447 391.000
15.22272 379.000
15.24097 349.000
15.25922 379.000
15.27748 365.000
15.29573 365.000
15.31398 373.000
15.33223 370.000
15.35048 343.000
15.36874 351.000
15.38699 388.000
15.40524 313.000
15.42349 337.000
15.44174 366.000
15.46000 363.000
15.47825 362.000
15.49650 373.000
15.51475 374.000
15.53301 355.000
15.55126 374.000
15.56951 406.000
15.58776 377.000
15.60601 410.000
15.62427 391.000
15.64252 400.000
15.66077 369.000
15.67902 407.000
15.69727 400.000
15.71553 377.000
15.73378 349.000
15.75203 388.000
15.77028 399.000
15.78853 412.000
15.80679 441.000
15.82504 423.000
15.84329 434.000
15.86154 440.000
15.87979 430.000
15.89805 426.000
15.91630 460.000
15.93455 429.000
15.95280 435.000
15.97106 507.000
15.98931 492.000
16.00756 546.000
16.02581 498.000
16.04406 557.000
16.06232 579.000
16.08057 573.000
16.09882 593.000
16.11707 599.000
16.13532 639.000
16.15358 624.000
16.17183 684.000
16.19008 842.000
16.20833 873.000
16.22658 979.000
16.24484 1167.000
16.26309 1264.000
16.28134 1513.000
16.29959 1843.000
16.31785 2053.000
16.33610 2391.000
16.35435 2584.000
16.37260 2728.000
16.39085 2668.000
16.40911 2507.000
16.42736 2449.000
16.44561 2105.000
16.46386 1905.000
16.48211 1715.000
16.50037 1555.000
16.51862 1476.000
16.53687 1414.000
16.55512 1353.000
16.57337 1531.000
16.59163 1539.000
16.60988 1613.000
16.62813 1654.000
16.64638 1668.000
16.66464 1763.000
16.68289 1830.000
16.70114 1902.000
16.71939 1946.000
16.73764 2127.000
16.75590 2183.000
16.77415 2399.000
16.79240 2423.000
16.81065 2330.000
16.82890 2338.000
16.84716 2013.000
16.86541 1895.000
16.88366 1682.000
16.90191 1656.000
16.92016 1579.000
16.93842 1662.000
16.95667 1755.000
16.97492 1890.000
16.99317 2325.000
17.01142 2497.000
17.02968 2905.000
17.04793 3211.000
17.06618 3514.000
17.08443 3740.000
17.10269 3750.000
17.12094 3711.000
17.13919 3525.000
17.15744 2985.000
17.17569 2618.000
17.19395 2281.000
17.21220 1878.000
17.23045 1633.000
17.24870 1339.000
17.26695 1223.000
17.28521 1078.000
17.30346 984.000
17.32171 955.000
17.33996 874.000
17.35821 839.000
17.37647 781.000
17.39472 790.000
17.41297 721.000
17.43122 668.000
17.44948 719.000
17.46773 659.000
17.48598 622.000
17.50423 599.000
17.52248 632.000
17.54074 608.000
17.55899 643.000
17.57724 630.000
17.59549 634.000
17.61374 654.000
17.63200 720.000
17.65025 782.000
17.66850 769.000
17.68675 837.000
17.70500 890.000
17.72326 915.000
17.74151 1042.000
17.75976 940.000
17.77801 1021.000
17.79627 982.000
17.81452 1103.000
17.83277 1124.000
17.85102 1258.000
17.86927 1261.000
17.88753 1545.000
17.90578 1746.000
17.92403 1971.000
17.94228 2274.000
17.96053 2693.000
17.97879 3126.000
17.99704 3554.000
18.01529 4192.000
18.03354 4673.000
18.05179 5147.000
18.07005 5390.000
18.08830 5634.000
18.10655 5574.000
18.12480 5229.000
18.14305 4824.000
18.16131 4091.000
18.17956 3582.000
18.19781 3003.000
18.21606 2499.000
18.23432 2206.000
18.25257 1872.000
18.27082 1685.000
18.28907 1476.000
18.30732 1480.000
18.32558 1307.000
18.34383 1240.000
18.36208 1207.000
18.38033 1177.000
18.39858 1088.000
18.41684 1123.000
18.43509 1123.000
18.45334 1042.000
18.47159 1129.000
18.48984 1232.000
18.50810 1265.000
18.52635 1365.000
18.54460 1465.000
18.56285 1585.000
18.58111 1874.000
18.59936 2052.000
18.61761 2307.000
18.63586 2555.000
18.65411 2823.000
18.67237 2853.000
18.69062 2878.000
18.70887 2857.000
18.72712 2693.000
18.74537 2498.000
18.76363 2212.000
18.78188 1995.000
18.80013 1786.000
18.81838 1642.000
18.83663 1493.000
18.85489 1428.000
18.87314 1326.000
18.89139 1273.000
18.90964 1280.000
18.92789 1244.000
18.94615 1173.000
18.96440 1259.000
18.98265 1350.000
19.00090 1275.000
19.01916 1346.000
19.03741 1377.000
19.05566 1255.000
19.07391 1287.000
19.09216 1210.000
19.11042 1083.000
19.12867 1003.000
19.14692 906.000
19.16517 848.000
19.18342 817.000
19.20168 869.000
19.21993 846.000
19.23818 884.000
19.25643 845.000
19.27468 952.000
19.29294 1068.000
19.31119 1049.000
19.32944 1170.000
19.34769 1285.000
19.36595 1490.000
19.38420 1628.000
19.40245 1852.000
19.42070 2160.000
19.43895 2484.000
19.45721 2689.000
19.47546 3117.000
19.49371 3174.000
19.51196 3399.000
19.53021 3414.000
19.54847 3344.000
19.56672 3001.000
19.58497 2758.000
19.60322 2467.000
19.62147 2075.000
19.63973 1841.000
19.65798 1747.000
19.67623 1745.000
19.69448 1591.000
19.71274 1500.000
19.73099 1705.000
19.74924 1842.000
19.76749 1795.000
19.78574 2007.000
19.80400 2219.000
19.82225 2495.000
19.84050 2773.000
19.85875 2868.000
19.87700 3090.000
19.89526 3437.000
19.91351 3450.000
19.93176 3475.000
19.95001 3364.000
19.96826 3077.000
19.98652 2751.000
20.00477 2501.000
20.02302 2349.000
20.04127 2174.000
20.05952 1984.000
20.07778 1965.000
20.09603 2004.000
20.11428 2072.000
20.13253 2179.000
20.15079 2217.000
20.16904 2446.000
20.18729 2555.000
20.20554 2544.000
20.22379 2673.000
20.24205 2819.000
20.26030 2966.000
20.27855 3062.000
20.29680 3158.000
20.31505 3493.000
20.33331 3664.000
20.35156 3697.000
20.36981 3394.000
20.38806 3156.000
20.40631 2694.000
20.42457 2300.000
20.44282 1851.000
20.46107 1569.000
20.47932 1309.000
20.49758 1266.000
20.51583 1135.000
20.53408 1075.000
20.55233 1048.000
20.57058 1098.000
20.58884 1013.000
20.60709 1036.000
20.62534 951.000
20.64359 888.000
20.66184 843.000
20.68010 836.000
20.69835 827.000
20.71660 768.000
20.73485 803.000
20.75310 781.000
20.77136 774.000
20.78961 759.000
20.80786 798.000
20.82611 762.000
20.84436 871.000
20.86262 772.000
20.88087 818.000
20.89912 868.000
20.91737 828.000
20.93563 880.000
20.95388 890.000
20.97213 960.000
20.99038 976.000
21.00863 1004.000
21.02689 1064.000
21.04514 1099.000
21.06339 1197.000
21.08164 1177.000
21.09989 1298.000
21.11815 1395.000
21.13640 1566.000
21.15465 1649.000
21.17290 1850.000
21.19115 2062.000
21.20941 2112.000
21.22766 2405.000
21.24591 2695.000
21.26416 3075.000
21.28242 3432.000
21.30067 3887.000
21.31892 4341.000
21.33717 4949.000
21.35542 5443.000
21.37368 6028.000
21.39193 6452.000
21.41018 6803.000
21.42843 7279.000
21.44668 7736.000
21.46494 8001.000
21.48319 8278.000
21.50144 8539.000
21.51969 8510.000
21.53794 8586.000
21.55620 8670.000
21.57445 8527.000
21.59270 8394.000
21.61095 7973.000
21.62921 7684.000
21.64746 7052.000
21.66571 6599.000
21.68396 5902.000
21.70221 5201.000
21.72047 4480.000
21.73872 3952.000
21.75697 3269.000
21.77522 2766.000
21.79347 2436.000
21.81173 2058.000
21.82998 1716.000
21.84823 1520.000
21.86648 1373.000
21.88473 1284.000
21.90299 1186.000
21.92124 1118.000
21.93949 967.000
21.95774 974.000
21.97599 936.000
21.99425 963.000
22.01250 852.000
22.03075 875.000
22.04900 825.000
22.06726 793.000
22.08551 808.000
22.10376 832.000
22.12201 820.000
22.14026 799.000
22.15852 817.000
22.17677 844.000
22.19502 859.000
22.21327 830.000
22.23152 808.000
22.24978 840.000
22.26803 822.000
22.28628 843.000
22.30453 882.000
22.32278 911.000
22.34104 930.000
22.35929 996.000
22.37754 1024.000
22.39579 1021.000
22.41405 1128.000
22.43230 1164.000
22.45055 1229.000
22.46880 1270.000
22.48705 1247.000
22.50531 1271.000
22.52356 1203.000
22.54181 1146.000
22.56006 1158.000
22.57831 1086.000
22.59657 1034.000
22.61482 1027.000
22.63307 910.000
22.65132 954.000
22.66957 866.000
22.68783 863.000
22.70608 889.000
22.72433 929.000
22.74258 957.000
22.76084 1018.000
22.77909 1012.000
22.79734 1058.000
22.81559 1125.000
22.83384 1135.000
22.85210 1176.000
22.87035 1246.000
22.88860 1301.000
22.90685 1280.000
22.92510 1257.000
22.94336 1284.000
22.96161 1272.000
22.97986 1298.000
22.99811 1195.000
23.01636 1255.000
23.03462 1171.000
23.05287 1131.000
23.07112 979.000
23.08937 925.000
23.10762 899.000
23.12588 877.000
23.14413 884.000
23.16238 866.000
23.18063 830.000
23.19889 833.000
23.21714 881.000
23.23539 888.000
23.25364 977.000
23.27189 1036.000
23.29015 1067.000
23.30840 1185.000
23.32665 1292.000
23.34490 1436.000
23.36315 1541.000
23.38141 1716.000
23.39966 1901.000
23.41791 2093.000
23.43616 2287.000
23.45441 2500.000
23.47267 2568.000
23.49092 2775.000
23.50917 2797.000
23.52742 2891.000
23.54568 2785.000
23.56393 2757.000
23.58218 2650.000
23.60043 2474.000
23.61868 2222.000
23.63694 2108.000
23.65519 1970.000
23.67344 1795.000
23.69169 1647.000
23.70994 1542.000
23.72820 1425.000
23.74645 1468.000
23.76470 1406.000
23.78295 1324.000
23.80120 1381.000
23.81946 1248.000
23.83771 1210.000
23.85596 1152.000
23.87421 1097.000
23.89246 1058.000
23.91072 960.000
23.92897 943.000
23.94722 824.000
23.96547 856.000
23.98373 819.000
24.00198 805.000
24.02023 797.000
24.03848 748.000
24.05673 728.000
24.07499 757.000
24.09324 791.000
24.11149 769.000
24.12974 808.000
24.14799 874.000
24.16625 873.000
24.18450 890.000
24.20275 974.000
24.22100 1037.000
24.23925 1176.000
24.25751 1145.000
24.27576 1220.000
24.29401 1495.000
24.31226 1547.000
24.33052 1723.000
24.34877 1812.000
24.36702 1955.000
24.38527 1962.000
24.40352 1956.000
24.42178 1956.000
24.44003 1847.000
24.45828 1632.000
24.47653 1548.000
24.49478 1327.000
24.51304 1224.000
24.53129 1051.000
24.54954 955.000
24.56779 925.000
24.58604 918.000
24.60430 886.000
24.62255 908.000
24.64080 967.000
24.65905 933.000
24.67731 933.000
24.69556 1125.000
24.71381 1105.000
24.73206 1131.000
24.75031 1099.000
24.76857 1126.000
24.78682 1007.000
24.80507 1028.000
24.82332 985.000
24.84157 836.000
24.85983 835.000
24.87808 781.000
24.89633 829.000
24.91458 753.000
24.93283 791.000
24.95109 780.000
24.96934 812.000
24.98759 820.000
25.00584 943.000
25.02409 975.000
25.04235 1010.000
25.06060 1097.000
25.07885 1219.000
25.09710 1275.000
25.11536 1333.000
25.13361 1459.000
25.15186 1490.000
25.17011 1496.000
25.18836 1587.000
25.20662 1649.000
25.22487 1654.000
25.24312 1689.000
25.26137 1511.000
25.27962 1568.000
25.29788 1410.000
25.31613 1367.000
25.33438 1407.000
25.35263 1303.000
25.37088 1249.000
25.38914 1284.000
25.40739 1183.000
25.42564 1257.000
25.44389 1245.000
25.46215 1142.000
25.48040 1118.000
25.49865 1111.000
25.51690 1051.000
25.53515 983.000
25.55341 968.000
25.57166 880.000
25.58991 792.000
25.60816 794.000
25.62641 761.000
25.64467 770.000
25.66292 712.000
25.68117 662.000
25.69942 666.000
25.71767 684.000
25.73593 717.000
25.75418 718.000
25.77243 753.000
25.79068 786.000
25.80893 790.000
25.82719 874.000
25.84544 843.000
25.86369 955.000
25.88194 960.000
25.90020 1060.000
25.91845 1061.000
25.93670 1160.000
25.95495 1269.000
25.97320 1366.000
25.99146 1393.000
26.00971 1439.000
26.02796 1587.000
26.04621 1601.000
26.06446 1665.000
26.08272 1546.000
26.10097 1521.000
26.11922 1458.000
26.13747 1459.000
26.15572 1356.000
26.17398 1219.000
26.19223 1214.000
26.21048 1198.000
26.22873 1075.000
26.24699 1040.000
26.26524 984.000
26.28349 1009.000
26.30174 984.000
26.31999 1066.000
26.33825 998.000
26.35650 1145.000
26.37475 1063.000
26.39300 1018.000
26.41125 1129.000
26.42951 1257.000
26.44776 1201.000
26.46601 1274.000
26.48426 1291.000
26.50251 1300.000
26.52077 1350.000
26.53902 1365.000
26.55727 1472.000
26.57552 1376.000
26.59378 1428.000
26.61203 1362.000
26.63028 1361.000
26.64853 1293.000
26.66678 1241.000
26.68504 1195.000
26.70329 1161.000
26.72154 1097.000
26.73979 1107.000
26.75804 1090.000
26.77630 1123.000
26.79455 1180.000
26.81280 1182.000
26.83105 1172.000
26.84930 1211.000
26.86756 1326.000
26.88581 1372.000
26.90406 1366.000
26.92231 1473.000
26.94056 1380.000
26.95882 1575.000
26.97707 1620.000
26.99532 1554.000
27.01357 1570.000
27.03183 1502.000
27.05008 1453.000
27.06833 1356.000
27.08658 1415.000
27.10483 1285.000
27.12309 1236.000
27.14134 1187.000
27.15959 1238.000
27.17784 1136.000
27.19609 1065.000
27.21435 1087.000
27.23260 1110.000
27.25085 1000.000
27.26910 1032.000
27.28735 1000.000
27.30561 1021.000
27.32386 1076.000
27.34211 1061.000
27.36036 1121.000
27.37862 1122.000
27.39687 1144.000
27.41512 1113.000
27.43337 1090.000
27.45162 1213.000
27.46988 1137.000
27.48813 1135.000
27.50638 1133.000
27.52463 1045.000
27.54288 1034.000
27.56114 933.000
27.57939 855.000
27.59764 841.000
27.61589 754.000
27.63414 763.000
27.65240 645.000
27.67065 671.000
27.68890 642.000
27.70715 548.000
27.72541 548.000
27.74366 545.000
27.76191 514.000
27.78016 538.000
27.79841 517.000
27.81667 498.000
27.83492 512.000
27.85317 494.000
27.87142 482.000
27.88967 489.000
27.90793 472.000
27.92618 516.000
27.94443 505.000
27.96268 496.000
27.98093 513.000
27.99919 530.000
28.01744 493.000
28.03569 523.000
28.05394 542.000
28.07219 506.000
28.09045 497.000
28.10870 548.000
28.12695 505.000
28.14520 561.000
28.16346 557.000
28.18171 545.000
28.19996 611.000
28.21821 610.000
28.23646 606.000
28.25472 664.000
28.27297 679.000
28.29122 690.000
28.30947 766.000
28.32772 738.000
28.34598 793.000
28.36423 842.000
28.38248 941.000
28.40073 961.000
28.41898 951.000
28.43724 995.000
28.45549 1004.000
28.47374 1141.000
28.49199 1082.000
28.51025 1098.000
28.52850 1083.000
28.54675 1082.000
28.56500 1079.000
28.58325 1045.000
28.60151 1007.000
28.61976 996.000
28.63801 978.000
28.65626 933.000
28.67451 854.000
28.69277 848.000
28.71102 793.000
28.72927 758.000
28.74752 759.000
28.76577 809.000
28.78403 753.000
28.80228 735.000
28.82053 719.000
28.83878 730.000
28.85703 720.000
28.87529 775.000
28.89354 780.000
28.91179 820.000
28.93004 813.000
28.94830 842.000
28.96655 856.000
28.98480 936.000
29.00305 934.000
29.02130 903.000
29.03956 932.000
29.05781 945.000
29.07606 1027.000
29.09431 1002.000
29.11256 1002.000
29.13082 955.000
29.14907 875.000
29.16732 907.000
29.18557 864.000
29.20382 808.000
29.22208 787.000
29.24033 815.000
29.25858 879.000
29.27683 868.000
29.29509 802.000
29.31334 899.000
29.33159 871.000
29.34984 845.000
29.36809 846.000
29.38635 920.000
29.40460 852.000
29.42285 843.000
29.44110 809.000
29.45935 799.000
29.47761 835.000
29.49586 863.000
29.51411 808.000
29.53236 825.000
29.55061 797.000
29.56887 768.000
29.58712 825.000
29.60537 769.000
29.62362 801.000
29.64188 807.000
29.66013 770.000
29.67838 842.000
29.69663 877.000
29.71488 851.000
29.73314 960.000
29.75139 983.000
29.76964 945.000
29.78789 995.000
29.80614 979.000
29.82440 943.000
29.84265 994.000
29.86090 952.000
29.87915 966.000
29.89740 981.000
29.91566 938.000
29.93391 988.000
29.95216 914.000
29.97041 974.000
29.98866 969.000
30.00692 972.000
30.02517 949.000
30.04342 928.000
30.06167 843.000
30.07993 897.000
30.09818 855.000
30.11643 774.000
30.13468 797.000
30.15293 725.000
30.17119 756.000
30.18944 758.000
30.20769 684.000
30.22594 670.000
30.24419 638.000
30.26245 677.000
30.28070 701.000
30.29895 695.000
30.31720 727.000
30.33545 723.000
30.35371 789.000
30.37196 763.000
30.39021 790.000
30.40846 801.000
30.42672 799.000
30.44497 792.000
30.46322 762.000
30.48147 725.000
30.49972 738.000
30.51798 642.000
30.53623 606.000
30.55448 624.000
30.57273 547.000
30.59098 540.000
30.60924 515.000
30.62749 523.000
30.64574 488.000
30.66399 470.000
30.68224 466.000
30.70050 468.000
30.71875 445.000
30.73700 453.000
30.75525 455.000
30.77351 474.000
30.79176 448.000
30.81001 493.000
30.82826 507.000
30.84651 437.000
30.86477 497.000
30.88302 511.000
30.90127 500.000
30.91952 542.000
30.93777 518.000
30.95603 587.000
30.97428 583.000
30.99253 597.000
31.01078 599.000
31.02903 605.000
31.04729 697.000
31.06554 668.000
31.08379 641.000
31.10204 706.000
31.12029 711.000
31.13855 663.000
31.15680 696.000
31.17505 620.000
31.19330 684.000
31.21156 647.000
31.22981 624.000
31.24806 650.000
31.26631 642.000
31.28456 589.000
31.30282 622.000
31.32107 557.000
31.33932 532.000
31.35757 539.000
31.37582 528.000
31.39408 507.000
31.41233 527.000
31.43058 506.000
31.44883 484.000
31.46708 498.000
31.48534 522.000
31.50359 505.000
31.52184 465.000
31.54009 486.000
31.55835 541.000
31.57660 545.000
31.59485 564.000
31.61310 536.000
31.63135 545.000
31.64961 611.000
31.66786 623.000
31.68611 626.000
31.70436 609.000
31.72261 590.000
31.74087 597.000
31.75912 623.000
31.77737 589.000
31.79562 586.000
31.81387 627.000
31.83213 625.000
31.85038 665.000
31.86863 665.000
31.88688 605.000
31.90513 605.000
31.92339 605.000
31.94164 688.000
31.95989 666.000
31.97814 672.000
31.99640 660.000
32.01465 661.000
32.03290 658.000
32.05115 646.000
32.06940 629.000
32.08766 640.000
32.10591 642.000
32.12416 583.000
32.14241 630.000
32.16066 597.000
32.17892 569.000
32.19717 559.000
32.21542 555.000
32.23367 620.000
32.25192 572.000
32.27018 533.000
32.28843 571.000
32.30668 526.000
32.32493 526.000
32.34319 534.000
32.36144 549.000
32.37969 503.000
32.39794 478.000
32.41619 483.000
32.43445 481.000
32.45270 478.000
32.47095 531.000
32.48920 497.000
32.50745 480.000
32.52571 464.000
32.54396 456.000
32.56221 473.000
32.58046 435.000
32.59871 472.000
32.61697 480.000
32.63522 464.000
32.65347 484.000
32.67172 492.000
32.68998 481.000
32.70823 522.000
32.72648 505.000
32.74473 516.000
32.76298 538.000
32.78124 557.000
32.79949 570.000
32.81774 532.000
32.83599 554.000
32.85424 569.000
32.87250 566.000
32.89075 571.000
32.90900 575.000
32.92725 601.000
32.94550 579.000
32.96376 558.000
32.98201 603.000
33.00026 608.000
33.01851 630.000
33.03676 597.000
33.05502 608.000
33.07327 641.000
33.09152 629.000
33.10977 663.000
33.12803 653.000
33.14628 596.000
33.16453 642.000
33.18278 643.000
33.20103 642.000
33.21929 670.000
33.23754 677.000
33.25579 667.000
33.27404 719.000
33.29229 711.000
33.31055 710.000
33.32880 717.000
33.34705 723.000
33.36530 741.000
33.38355 640.000
33.40181 684.000
33.42006 667.000
33.43831 642.000
33.45656 593.000
33.47482 574.000
33.49307 567.000
33.51132 546.000
33.52957 544.000
33.54782 535.000
33.56608 530.000
33.58433 524.000
33.60258 509.000
33.62083 483.000
33.63908 497.000
33.65734 448.000
33.67559 456.000
33.69384 485.000
33.71209 509.000
33.73034 499.000
33.74860 441.000
33.76685 503.000
33.78510 474.000
33.80335 497.000
33.82160 490.000
33.83986 537.000
33.85811 523.000
33.87636 483.000
33.89461 546.000
33.91287 570.000
33.93112 560.000
33.94937 568.000
33.96762 562.000
33.98587 591.000
34.00413 549.000
34.02238 606.000
34.04063 582.000
34.05888 605.000
34.07713 617.000
34.09539 592.000
34.11364 681.000
34.13189 624.000
34.15014 615.000
34.16839 597.000
34.18665 609.000
34.20490 640.000
34.22315 666.000
34.24140 600.000
34.25966 651.000
34.27791 668.000
34.29616 660.000
34.31441 694.000
34.33266 633.000
34.35092 685.000
34.36917 727.000
34.38742 775.000
34.40567 788.000
34.42392 750.000
34.44218 882.000
34.46043 851.000
34.47868 1019.000
34.49693 975.000
34.51518 1075.000
34.53344 1041.000
34.55169 1088.000
34.56994 1190.000
34.58819 1124.000
34.60645 1097.000
34.62470 1065.000
34.64295 1062.000
34.66120 1050.000
34.67945 959.000
34.69771 901.000
34.71596 905.000
34.73421 772.000
34.75246 794.000
34.77071 804.000
34.78897 775.000
34.80722 763.000
34.82547 808.000
34.84372 815.000
34.86197 780.000
34.88023 817.000
34.89848 801.000
34.91673 896.000
34.93498 785.000
34.95323 865.000
34.97149 849.000
34.98974 794.000
35.00799 805.000
35.02624 849.000
35.04450 704.000
35.06275 761.000
35.08100 758.000
35.09925 681.000
35.11750 647.000
35.13576 700.000
35.15401 607.000
35.17226 624.000
35.19051 651.000
35.20876 624.000
35.22702 578.000
35.24527 614.000
35.26352 530.000
35.28177 522.000
35.30002 608.000
35.31828 567.000
35.33653 516.000
35.35478 556.000
35.37303 561.000
35.39129 528.000
35.40954 540.000
35.42779 545.000
35.44604 577.000
35.46429 627.000
35.48255 562.000
35.50080 611.000
35.51905 574.000
35.53730 526.000
35.55555 566.000
35.57381 617.000
35.59206 559.000
35.61031 573.000
35.62856 553.000
35.64681 581.000
35.66507 570.000
35.68332 579.000
35.70157 516.000
35.71982 537.000
35.73808 480.000
35.75633 485.000
35.77458 465.000
35.79283 491.000
35.81108 472.000
35.82934 433.000
35.84759 449.000
35.86584 421.000
35.88409 451.000
35.90234 435.000
35.92060 467.000
35.93885 435.000
35.95710 422.000
35.97535 500.000
35.99360 464.000
36.01186 477.000
36.03011 519.000
36.04836 504.000
36.06661 487.000
36.08486 459.000
36.10312 494.000
36.12137 525.000
36.13962 510.000
36.15787 551.000
36.17613 507.000
36.19438 564.000
36.21263 563.000
36.23088 523.000
36.24913 580.000
36.26739 573.000
36.28564 599.000
36.30389 581.000
36.32214 583.000
36.34039 584.000
36.35865 620.000
36.37690 612.000
36.39515 574.000
36.41340 598.000
36.43165 626.000
36.44991 634.000
36.46816 673.000
36.48641 625.000
36.50466 683.000
36.52292 700.000
36.54117 666.000
36.55942 693.000
36.57767 737.000
36.59592 736.000
36.61418 724.000
36.63243 747.000
36.65068 769.000
36.66893 757.000
36.68718 728.000
36.70544 743.000
36.72369 772.000
36.74194 788.000
36.76019 786.000
36.77844 722.000
36.79670 795.000
36.81495 837.000
36.83320 753.000
36.85145 780.000
36.86970 764.000
36.88796 724.000
36.90621 751.000
36.92446 699.000
36.94271 672.000
36.96097 682.000
36.97922 623.000
36.99747 692.000
37.01572 669.000
37.03397 631.000
37.05223 633.000
37.07048 689.000
37.08873 637.000
37.10698 644.000
37.12523 669.000
37.14349 599.000
37.16174 600.000
37.17999 572.000
37.19824 609.000
37.21649 595.000
37.23475 577.000
37.25300 591.000
37.27125 580.000
37.28950 568.000
37.30776 578.000
37.32601 542.000
37.34426 560.000
37.36251 530.000
37.38076 568.000
37.39902 518.000
37.41727 490.000
37.43552 514.000
37.45377 519.000
37.47202 516.000
37.49028 524.000
37.50853 548.000
37.52678 523.000
37.54503 547.000
37.56328 525.000
37.58154 572.000
37.59979 477.000
37.61804 542.000
37.63629 558.000
37.65455 522.000
37.67280 542.000
37.69105 556.000
37.70930 528.000
37.72755 609.000
37.74581 569.000
37.76406 589.000
37.78231 575.000
37.80056 586.000
37.81881 638.000
37.83707 572.000
37.85532 601.000
37.87357 619.000
37.89182 639.000
37.91007 665.000
37.92833 652.000
37.94658 709.000
37.96483 689.000
37.98308 710.000
38.00133 667.000
38.01959 721.000
38.03784 707.000
38.05609 671.000
38.07434 667.000
38.09260 589.000
38.11085 662.000
38.12910 589.000
38.14735 589.000
38.16560 569.000
38.18386 530.000
38.20211 574.000
38.22036 523.000
38.23861 489.000
38.25686 489.000
38.27512 539.000
38.29337 519.000
38.31162 530.000
38.32987 492.000
38.34812 535.000
38.36638 536.000
38.38463 531.000
38.40288 571.000
38.42113 501.000
38.43939 566.000
38.45764 551.000
38.47589 575.000
38.49414 608.000
38.51239 501.000
38.53065 538.000
38.54890 461.000
38.56715 555.000
38.58540 522.000
38.60365 522.000
38.62191 512.000
38.64016 549.000
38.65841 478.000
38.67666 473.000
38.69491 482.000
38.71317 438.000
38.73142 511.000
38.74967 492.000
38.76792 432.000
38.78617 461.000
38.80443 496.000
38.82268 462.000
38.84093 473.000
38.85918 425.000
38.87744 453.000
38.89569 458.000
38.91394 442.000
38.93219 453.000
38.95044 490.000
38.96870 447.000
38.98695 462.000
39.00520 451.000
39.02345 541.000
39.04170 458.000
39.05996 472.000
39.07821 509.000
39.09646 502.000
39.11471 521.000
39.13296 482.000
39.15122 475.000
39.16947 508.000
39.18772 480.000
39.20597 526.000
39.22423 512.000
39.24248 500.000
39.26073 515.000
39.27898 543.000
39.29723 508.000
39.31549 504.000
39.33374 510.000
39.35199 541.000
39.37024 503.000
39.38849 548.000
39.40675 546.000
39.42500 564.000
39.44325 538.000
39.46150 554.000
39.47975 579.000
39.49801 584.000
39.51626 600.000
39.53451 596.000
39.55276 590.000
39.57102 617.000
39.58927 608.000
39.60752 639.000
39.62577 624.000
39.64402 614.000
39.66228 598.000
39.68053 640.000
39.69878 636.000
39.71703 611.000
39.73528 623.000
39.75354 613.000
39.77179 641.000
39.79004 599.000
39.80829 583.000
39.82654 582.000
39.84480 535.000
39.86305 572.000
39.88130 545.000
39.89955 569.000
39.91780 543.000
39.93606 538.000
39.95431 580.000
39.97256 596.000
39.99081 591.000
40.00907 620.000
40.02732 610.000
40.04557 667.000
40.06382 654.000
40.08207 652.000
40.10033 625.000
40.11858 716.000
40.13683 685.000
40.15508 702.000
40.17333 741.000
40.19159 738.000
40.20984 727.000
40.22809 787.000
40.24634 712.000
40.26459 748.000
40.28285 762.000
40.30110 739.000
40.31935 708.000
40.33760 715.000
40.35586 714.000
40.37411 733.000
40.39236 699.000
40.41061 693.000
40.42886 701.000
40.44712 682.000
40.46537 654.000
40.48362 656.000
40.50187 614.000
40.52012 649.000
40.53838 582.000
40.55663 604.000
40.57488 587.000
40.59313 599.000
40.61138 574.000
40.62964 534.000
40.64789 518.000
40.66614 549.000
40.68439 497.000
40.70265 502.000
40.72090 514.000
40.73915 500.000
40.75740 514.000
40.77565 514.000
40.79391 486.000
40.81216 512.000
40.83041 513.000
40.84866 468.000
40.86691 464.000
40.88517 476.000
40.90342 447.000
40.92167 496.000
40.93992 498.000
40.95817 522.000
40.97643 547.000
40.99468 537.000
41.01293 547.000
41.03118 535.000
41.04943 519.000
41.06769 505.000
41.08594 515.000
41.10419 487.000
41.12244 500.000
41.14070 492.000
41.15895 527.000
41.17720 521.000
41.19545 524.000
41.21370 571.000
41.23196 529.000
41.25021 502.000
41.26846 589.000
41.28671 578.000
41.30496 623.000
41.32322 649.000
41.34147 620.000
41.35972 590.000
41.37797 641.000
41.39622 589.000
41.41448 589.000
41.43273 665.000
41.45098 606.000
41.46923 613.000
41.48749 629.000
41.50574 673.000
41.52399 692.000
41.54224 614.000
41.56049 642.000
41.57875 660.000
41.59700 652.000
41.61525 672.000
41.63350 691.000
41.65175 683.000
41.67001 694.000
41.68826 677.000
41.70651 687.000
41.72476 757.000
41.74301 697.000
41.76127 741.000
41.77952 676.000
41.79777 702.000
41.81602 693.000
41.83427 669.000
41.85253 687.000
41.87078 636.000
41.88903 620.000
41.90728 642.000
41.92554 595.000
41.94379 539.000
41.96204 554.000
41.98029 521.000
41.99854 513.000
42.01680 495.000
42.03505 497.000
42.05330 481.000
42.07155 487.000
42.08980 468.000
42.10806 473.000
42.12631 482.000
42.14456 467.000
42.16281 441.000
42.18106 456.000
42.19932 474.000
42.21757 466.000
42.23582 452.000
42.25407 460.000
42.27233 433.000
42.29058 469.000
42.30883 425.000
42.32708 455.000
42.34533 453.000
42.36359 471.000
42.38184 438.000
42.40009 444.000
42.41834 413.000
42.43659 409.000
42.45485 410.000
42.47310 449.000
42.49135 474.000
42.50960 424.000
42.52785 433.000
42.54611 449.000
42.56436 434.000
42.58261 439.000
42.60086 440.000
42.61912 442.000
42.63737 424.000
42.65562 423.000
42.67387 397.000
42.69212 423.000
42.71038 408.000
42.72863 421.000
42.74688 437.000
42.76513 430.000
42.78338 442.000
42.80164 439.000
42.81989 421.000
42.83814 426.000
42.85639 465.000
42.87464 439.000
42.89290 450.000
42.91115 494.000
42.92940 441.000
42.94765 438.000
42.96590 405.000
42.98416 430.000
43.00241 471.000
43.02066 493.000
43.03891 432.000
43.05717 480.000
43.07542 481.000
43.09367 503.000
43.11192 517.000
43.13017 516.000
43.14843 502.000
43.16668 561.000
43.18493 551.000
43.20318 525.000
43.22143 529.000
43.23969 542.000
43.25794 553.000
43.27619 574.000
43.29444 596.000
43.31269 591.000
43.33095 547.000
43.34920 584.000
43.36745 612.000
43.38570 590.000
43.40396 563.000
43.42221 599.000
43.44046 599.000
43.45871 636.000
43.47696 579.000
43.49522 641.000
43.51347 545.000
43.53172 606.000
43.54997 584.000
43.56822 606.000
43.58648 666.000
43.60473 623.000
43.62298 619.000
43.64123 604.000
43.65948 586.000
43.67774 600.000
43.69599 624.000
43.71424 576.000
43.73249 586.000
43.75075 633.000
43.76900 595.000
43.78725 632.000
43.80550 630.000
43.82375 605.000
43.84201 655.000
43.86026 640.000
43.87851 625.000
43.89676 660.000
43.91501 649.000
43.93327 607.000
43.95152 698.000
43.96977 644.000
43.98802 607.000
44.00627 605.000
44.02453 629.000
44.04278 615.000
44.06103 607.000
44.07928 630.000
44.09753 607.000
44.11579 581.000
44.13404 601.000
44.15229 587.000
44.17054 582.000
44.18880 595.000
44.20705 534.000
44.22530 573.000
44.24355 549.000
44.26180 533.000
44.28006 531.000
44.29831 535.000
44.31656 515.000
44.33481 526.000
44.35306 467.000
44.37132 459.000
44.38957 522.000
44.40782 533.000
44.42607 511.000
44.44432 502.000
44.46258 473.000
44.48083 511.000
44.49908 456.000
44.51733 477.000
44.53559 479.000
44.55384 478.000
44.57209 501.000
44.59034 452.000
44.60859 444.000
44.62685 456.000
44.64510 512.000
44.66335 478.000
44.68160 501.000
44.69985 477.000
44.71811 512.000
44.73636 491.000
44.75461 485.000
44.77286 521.000
44.79111 517.000
44.80937 473.000
44.82762 544.000
44.84587 558.000
44.86412 503.000
44.88237 504.000
44.90063 557.000
44.91888 542.000
44.93713 483.000
44.95538 507.000
44.97364 544.000
44.99189 553.000
45.01014 534.000
45.02839 498.000
45.04664 520.000
45.06490 516.000
45.08315 511.000
45.10140 501.000
45.11965 513.000
45.13790 463.000
45.15616 493.000
45.17441 477.000
45.19266 455.000
45.21091 462.000
45.22916 465.000
45.24742 491.000
45.26567 477.000
45.28392 480.000
45.30217 501.000
45.32043 472.000
45.33868 443.000
45.35693 482.000
45.37518 472.000
45.39343 491.000
45.41169 504.000
45.42994 483.000
45.44819 480.000
45.46644 521.000
45.48469 491.000
45.50295 482.000
45.52120 493.000
45.53945 469.000
45.55770 477.000
45.57595 519.000
45.59421 523.000
45.61246 509.000
45.63071 470.000
45.64896 512.000
45.66722 441.000
45.68547 489.000
45.70372 520.000
45.72197 496.000
45.74022 528.000
45.75848 486.000
45.77673 529.000
45.79498 521.000
45.81323 497.000
45.83148 504.000
45.84974 495.000
45.86799 514.000
45.88624 480.000
45.90449 492.000
45.92274 500.000
45.94100 466.000
45.95925 461.000
45.97750 453.000
45.99575 486.000
46.01400 470.000
46.03226 469.000
46.05051 495.000
46.06876 450.000
46.08701 469.000
46.10527 469.000
46.12352 466.000
46.14177 486.000
46.16002 480.000
46.17827 508.000
46.19653 478.000
46.21478 511.000
46.23303 508.000
46.25128 491.000
46.26953 475.000
46.28779 517.000
46.30604 443.000
46.32429 495.000
46.34254 535.000
46.36079 460.000
46.37905 507.000
46.39730 526.000
46.41555 513.000
46.43380 518.000
46.45206 473.000
46.47031 543.000
46.48856 526.000
46.50681 493.000
46.52506 501.000
46.54332 534.000
46.56157 530.000
46.57982 514.000
46.59807 535.000
46.61632 493.000
46.63458 504.000
46.65283 550.000
46.67108 501.000
46.68933 501.000
46.70758 508.000
46.72584 484.000
46.74409 484.000
46.76234 519.000
46.78059 502.000
46.79884 498.000
46.81710 444.000
46.83535 490.000
46.85360 491.000
46.87185 449.000
46.89011 489.000
46.90836 502.000
46.92661 494.000
46.94486 500.000
46.96311 439.000
46.98137 482.000
46.99962 481.000
47.01787 536.000
47.03612 521.000
47.05437 497.000
47.07263 462.000
47.09088 456.000
47.10913 480.000
47.12738 501.000
47.14563 500.000
47.16389 477.000
47.18214 480.000
47.20039 538.000
47.21864 556.000
47.23690 534.000
47.25515 541.000
47.27340 535.000
47.29165 561.000
47.30990 560.000
47.32816 562.000
47.34641 548.000
47.36466 555.000
47.38291 573.000
47.40116 530.000
47.41942 591.000
47.43767 596.000
47.45592 533.000
47.47417 586.000
47.49242 559.000
47.51068 569.000
47.52893 565.000
47.54718 566.000
47.56543 508.000
47.58369 551.000
47.60194 521.000
47.62019 539.000
47.63844 528.000
47.65669 494.000
47.67495 512.000
47.69320 517.000
47.71145 500.000
47.72970 519.000
47.74795 500.000
47.76621 490.000
47.78446 505.000
47.80271 516.000
47.82096 487.000
47.83921 481.000
47.85747 502.000
47.87572 461.000
47.89397 510.000
47.91222 485.000
47.93047 492.000
47.94873 471.000
47.96698 468.000
47.98523 466.000
48.00348 447.000
48.02174 464.000
48.03999 448.000
48.05824 452.000
48.07649 451.000
48.09474 452.000
48.11300 447.000
48.13125 449.000
48.14950 450.000
48.16775 438.000
48.18600 459.000
48.20426 450.000
48.22251 436.000
48.24076 427.000
48.25901 452.000
48.27726 472.000
48.29552 429.000
48.31377 462.000
48.33202 440.000
48.35027 403.000
48.36853 444.000
48.38678 461.000
48.40503 442.000
48.42328 444.000
48.44153 476.000
48.45979 445.000
48.47804 430.000
48.49629 407.000
48.51454 475.000
48.53279 431.000
48.55105 403.000
48.56930 443.000
48.58755 436.000
48.60580 445.000
48.62405 453.000
48.64231 430.000
48.66056 452.000
48.67881 419.000
48.69706 421.000
48.71532 401.000
48.73357 412.000
48.75182 412.000
48.77007 385.000
48.78832 404.000
48.80658 417.000
48.82483 438.000
48.84308 419.000
48.86133 377.000
48.87958 376.000
48.89784 420.000
48.91609 377.000
48.93434 366.000
48.95259 403.000
48.97084 374.000
48.98910 400.000
49.00735 434.000
49.02560 392.000
49.04385 429.000
49.06210 403.000
49.08036 397.000
49.09861 425.000
49.11686 397.000
49.13511 422.000
49.15337 427.000
49.17162 405.000
49.18987 434.000
49.20812 411.000
49.22637 405.000
49.24463 417.000
49.26288 422.000
49.28113 472.000
49.29938 432.000
49.31763 476.000
49.33589 376.000
49.35414 455.000
49.37239 455.000
49.39064 481.000
49.40889 425.000
49.42715 391.000
49.44540 397.000
49.46365 427.000
49.48190 448.000
49.50016 420.000
49.51841 419.000
49.53666 434.000
49.55491 451.000
49.57316 469.000
49.59142 459.000
49.60967 446.000
49.62792 442.000
49.64617 451.000
49.66442 464.000
49.68268 448.000
49.70093 422.000
49.71918 433.000
49.73743 443.000
49.75568 453.000
49.77394 459.000
49.79219 422.000
49.81044 450.000
49.82869 423.000
49.84694 441.000
49.86520 421.000
49.88345 442.000
49.90170 414.000
49.91995 440.000
49.93821 410.000
49.95646 390.000
49.97471 422.000
49.99296 420.000
50.01121 401.000
50.02947 401.000
50.04772 464.000
50.06597 434.000
50.08422 465.000
50.10247 434.000
50.12073 463.000
50.13898 439.000
50.15723 434.000
50.17548 431.000
50.19373 462.000
50.21199 482.000
50.23024 469.000
50.24849 467.000
50.26674 513.000
50.28500 500.000
50.30325 466.000
50.32150 467.000
50.33975 472.000
50.35800 506.000
50.37626 512.000
50.39451 519.000
50.41276 492.000
50.43101 519.000
50.44926 541.000
50.46752 524.000
50.48577 465.000
50.50402 474.000
50.52227 548.000
50.54052 477.000
50.55878 458.000
50.57703 481.000
50.59528 436.000
50.61353 491.000
50.63179 463.000
50.65004 448.000
50.66829 445.000
50.68654 405.000
50.70479 436.000
50.72305 451.000
50.74130 403.000
50.75955 443.000
50.77780 418.000
50.79605 418.000
50.81431 434.000
50.83256 401.000
50.85081 442.000
50.86906 430.000
50.88731 426.000
50.90557 438.000
50.92382 412.000
50.94207 436.000
50.96032 408.000
50.97857 410.000
50.99683 418.000
51.01508 398.000
51.03333 386.000
51.05158 406.000
51.06984 395.000
51.08809 389.000
51.10634 429.000
51.12459 439.000
51.14284 451.000
51.16110 439.000
51.17935 457.000
51.19760 432.000
51.21585 423.000
51.23410 413.000
51.25236 464.000
51.27061 422.000
51.28886 429.000
51.30711 414.000
51.32536 398.000
51.34362 386.000
51.36187 381.000
51.38012 441.000
51.39837 421.000
51.41663 422.000
51.43488 437.000
51.45313 439.000
51.47138 408.000
51.48963 391.000
51.50789 401.000
51.52614 401.000
51.54439 399.000
51.56264 414.000
51.58089 393.000
51.59915 425.000
51.61740 418.000
51.63565 425.000
51.65390 393.000
51.67215 405.000
51.69041 388.000
51.70866 412.000
51.72691 412.000
51.74516 402.000
51.76341 410.000
51.78167 372.000
51.79992 416.000
51.81817 386.000
51.83642 437.000
51.85468 377.000
51.87293 442.000
51.89118 399.000
51.90943 379.000
51.92768 385.000
51.94594 427.000
51.96419 401.000
51.98244 384.000
52.00069 403.000
52.01894 398.000
52.03720 374.000
52.05545 400.000
52.07370 357.000
52.09195 378.000
52.11020 392.000
52.12846 383.000
52.14671 398.000
52.16496 379.000
52.18321 374.000
52.20147 392.000
52.21972 407.000
52.23797 389.000
52.25622 398.000
52.27447 423.000
52.29273 413.000
52.31098 369.000
52.32923 409.000
52.34748 386.000
52.36573 401.000
52.38399 404.000
52.40224 398.000
52.42049 374.000
52.43874 403.000
52.45699 354.000
52.47525 413.000
52.49350 389.000
52.51175 415.000
52.53000 362.000
52.54826 421.000
52.56651 401.000
52.58476 383.000
52.60301 378.000
52.62126 411.000
52.63952 386.000
52.65777 431.000
52.67602 422.000
52.69427 420.000
52.71252 414.000
52.73078 395.000
52.74903 399.000
52.76728 377.000
52.78553 394.000
52.80378 374.000
52.82204 386.000
52.84029 376.000
52.85854 366.000
52.87679 394.000
52.89504 391.000
52.91330 385.000
52.93155 409.000
52.94980 399.000
52.96805 404.000
52.98631 377.000
53.00456 375.000
53.02281 396.000
53.04106 409.000
53.05931 425.000
53.07757 400.000
53.09582 382.000
53.11407 401.000
53.13232 402.000
53.15057 430.000
53.16883 404.000
53.18708 384.000
53.20533 408.000
53.22358 420.000
53.24183 380.000
53.26009 382.000
53.27834 386.000
53.29659 394.000
53.31484 381.000
53.33310 372.000
53.35135 406.000
53.36960 396.000
53.38785 371.000
53.40610 383.000
53.42436 389.000
53.44261 373.000
53.46086 422.000
53.47911 396.000
53.49736 392.000
53.51562 374.000
53.53387 418.000
53.55212 380.000
53.57037 406.000
53.58862 365.000
53.60688 389.000
53.62513 410.000
53.64338 416.000
53.66163 415.000
53.67989 356.000
53.69814 401.000
53.71639 429.000
53.73464 405.000
53.75289 443.000
53.77115 386.000
53.78940 399.000
53.80765 430.000
53.82590 459.000
53.84415 406.000
53.86241 449.000
53.88066 409.000
53.89891 382.000
53.91716 408.000
53.93541 406.000
53.95367 431.000
53.97192 409.000
53.99017 372.000
54.00842 406.000
54.02667 409.000
54.04493 409.000
54.06318 372.000
54.08143 405.000
54.09968 364.000
54.11794 415.000
54.13619 401.000
54.15444 365.000
54.17269 419.000
54.19094 350.000
54.20920 384.000
54.22745 374.000
54.24570 350.000
54.26395 402.000
54.28220 408.000
54.30046 383.000
54.31871 347.000
54.33696 397.000
54.35521 373.000
54.37346 389.000
54.39172 357.000
54.40997 389.000
54.42822 374.000
54.44647 391.000
54.46473 371.000
54.48298 366.000
54.50123 391.000
54.51948 362.000
54.53773 362.000
54.55599 378.000
54.57424 330.000
54.59249 369.000
54.61074 388.000
54.62899 369.000
54.64725 391.000
54.66550 371.000
54.68375 380.000
54.70200 400.000
54.72025 382.000
54.73851 363.000
54.75676 347.000
54.77501 383.000
54.79326 382.000
54.81151 378.000
54.82977 358.000
54.84802 384.000
54.86627 392.000
54.88452 367.000
54.90278 380.000
54.92103 396.000
54.93928 323.000
54.95753 349.000
54.97578 346.000
54.99404 337.000
55.01229 338.000
55.03054 354.000
55.04879 344.000
55.06704 353.000
55.08530 350.000
55.10355 375.000
55.12180 337.000
55.14005 337.000
55.15830 350.000
55.17656 344.000
55.19481 341.000
55.21306 374.000
55.23131 343.000
55.24957 359.000
55.26782 338.000
55.28607 317.000
55.30432 336.000
55.32257 355.000
55.34083 374.000
55.35908 337.000
55.37733 351.000
55.39558 352.000
55.41383 333.000
55.43209 367.000
55.45034 357.000
55.46859 326.000
55.48684 340.000
55.50509 398.000
55.52335 351.000
55.54160 331.000
55.55985 358.000
55.57810 347.000
55.59636 389.000
55.61461 358.000
55.63286 353.000
55.65111 353.000
55.66936 398.000
55.68762 348.000
55.70587 341.000
55.72412 398.000
55.74237 381.000
55.76062 372.000
55.77888 357.000
55.79713 341.000
55.81538 363.000
55.83363 333.000
55.85188 386.000
55.87014 361.000
55.88839 374.000
55.90664 369.000
55.92489 398.000
55.94314 349.000
55.96140 337.000
55.97965 380.000
55.99790 407.000
56.01615 400.000
56.03441 396.000
56.05266 418.000
56.07091 379.000
56.08916 420.000
56.10741 372.000
56.12567 379.000
56.14392 386.000
56.16217 353.000
56.18042 350.000
56.19867 372.000
56.21693 384.000
56.23518 394.000
56.25343 382.000
56.27168 372.000
56.28993 364.000
56.30819 404.000
56.32644 350.000
56.34469 370.000
56.36294 346.000
56.38120 393.000
56.39945 370.000
56.41770 365.000
56.43595 376.000
56.45420 421.000
56.47246 392.000
56.49071 346.000
56.50896 351.000
56.52721 362.000
56.54546 345.000
56.56372 409.000
56.58197 375.000
56.60022 399.000
56.61847 368.000
56.63672 385.000
56.65498 380.000
56.67323 352.000
56.69148 393.000
56.70973 386.000
56.72799 382.000
56.74624 401.000
56.76449 387.000
56.78274 402.000
56.80099 376.000
56.81925 355.000
56.83750 342.000
56.85575 378.000
56.87400 378.000
56.89225 343.000
56.91051 355.000
56.92876 371.000
56.94701 363.000
56.96526 379.000
56.98351 374.000
57.00177 362.000
57.02002 363.000
57.03827 334.000
57.05652 348.000
57.07477 368.000
57.09303 371.000
57.11128 403.000
57.12953 367.000
57.14778 376.000
57.16604 368.000
57.18429 387.000
57.20254 395.000
57.22079 374.000
57.23904 362.000
57.25730 369.000
57.27555 346.000
57.29380 343.000
57.31205 382.000
57.33030 364.000
57.34856 364.000
57.36681 355.000
57.38506 362.000
57.40331 375.000
57.42156 368.000
57.43982 386.000
57.45807 365.000
57.47632 355.000
57.49457 382.000
57.51283 408.000
57.53108 358.000
57.54933 375.000
57.56758 384.000
57.58583 346.000
57.60409 384.000
57.62234 384.000
57.64059 388.000
57.65884 388.000
57.67709 362.000
57.69535 404.000
57.71360 391.000
57.73185 377.000
57.75010 373.000
57.76835 364.000
57.78661 358.000
57.80486 350.000
57.82311 405.000
57.84136 344.000
57.85961 339.000
57.87787 376.000
57.89612 364.000
57.91437 373.000
57.93262 330.000
57.95088 360.000
57.96913 314.000
57.98738 356.000
58.00563 354.000
58.02388 315.000
58.04214 326.000
58.06039 383.000
58.07864 352.000
58.09689 323.000
58.11514 336.000
58.13340 368.000
58.15165 353.000
58.16990 313.000
58.18815 330.000
58.20640 354.000
58.22466 345.000
58.24291 365.000
58.26116 357.000
58.27941 323.000
58.29767 337.000
58.31592 352.000
58.33417 348.000
58.35242 330.000
58.37067 354.000
58.38893 350.000
58.40718 339.000
58.42543 336.000
58.44368 379.000
58.46193 365.000
58.48019 347.000
58.49844 366.000
58.51669 321.000
58.53494 355.000
58.55319 328.000
58.57145 374.000
58.58970 328.000
58.60795 363.000
58.62620 324.000
58.64446 335.000
58.66271 342.000
58.68096 376.000
58.69921 381.000
58.71746 305.000
58.73572 322.000
58.75397 355.000
58.77222 338.000
58.79047 402.000
58.80872 353.000
58.82698 362.000
58.84523 351.000
58.86348 353.000
58.88173 361.000
58.89998 361.000
58.91824 330.000
58.93649 360.000
58.95474 352.000
58.97299 358.000
58.99124 365.000
59.00950 365.000
59.02775 375.000
59.04600 369.000
59.06425 384.000
59.08251 377.000
59.10076 385.000
59.11901 353.000
59.13726 321.000
59.15551 353.000
59.17377 379.000
59.19202 360.000
59.21027 385.000
59.22852 369.000
59.24677 403.000
59.26503 371.000
59.28328 344.000
59.30153 375.000
59.31978 352.000
59.33803 363.000
59.35629 336.000
59.37454 356.000
59.39279 348.000
59.41104 366.000
59.42930 387.000
59.44755 361.000
59.46580 392.000
59.48405 351.000
59.50230 354.000
59.52056 362.000
59.53881 374.000
59.55706 345.000
59.57531 339.000
59.59356 342.000
59.61182 326.000
59.63007 344.000
59.64832 368.000
59.66657 352.000
59.68482 331.000
59.70308 362.000
59.72133 347.000
59.73958 343.000
59.75783 304.000
59.77608 337.000
59.79434 316.000
59.81259 307.000
59.83084 326.000
59.84909 310.000
59.86735 320.000
59.88560 318.000
59.90385 299.000
59.92210 321.000
59.94035 336.000
59.95861 304.000
59.97686 329.000
59.99511 298.000
60.01336 309.000
60.03161 316.000
60.04987 333.000
60.06812 330.000
60.08637 290.000
60.10462 306.000
60.12287 315.000
60.14113 337.000
60.15938 293.000
60.17763 339.000
60.19588 348.000
60.21414 288.000
60.23239 317.000
60.25064 301.000
60.26889 308.000
60.28714 307.000
60.30540 328.000
60.32365 298.000
60.34190 325.000
60.36015 356.000
60.37840 341.000
60.39666 343.000
60.41491 340.000
60.43316 328.000
60.45141 307.000
60.46966 349.000
60.48792 315.000
60.50617 346.000
60.52442 334.000
60.54267 330.000
60.56093 329.000
60.57918 337.000
60.59743 313.000
60.61568 319.000
60.63393 334.000
60.65219 336.000
60.67044 302.000
60.68869 381.000
60.70694 326.000
60.72519 367.000
60.74345 344.000
60.76170 354.000
60.77995 333.000
60.79820 335.000
60.81645 292.000
60.83471 344.000
60.85296 319.000
60.87121 345.000
60.88946 322.000
60.90771 312.000
60.92597 301.000
60.94422 350.000
60.96247 317.000
60.98072 317.000
60.99898 323.000
