5.00155 928.000
5.02183 834.000
5.04211 842.000
5.06239 808.000
5.08267 825.000
5.10295 883.000
5.12323 827.000
5.14351 756.000
5.16379 793.000
5.18407 808.000
5.20435 733.000
5.22463 782.000
5.24491 696.000
5.26519 746.000
5.28547 765.000
5.30575 720.000
5.32603 716.000
5.34631 725.000
5.36659 724.000
5.38687 663.000
5.40715 722.000
5.42743 672.000
5.44771 694.000
5.46799 671.000
5.48827 671.000
5.50855 632.000
5.52883 629.000
5.54911 636.000
5.56939 661.000
5.58967 598.000
5.60995 595.000
5.63023 625.000
5.65051 611.000
5.67079 612.000
5.69107 631.000
5.71135 636.000
5.73163 600.000
5.75191 594.000
5.77219 606.000
5.79247 581.000
5.81275 583.000
5.83303 556.000
5.85331 551.000
5.87359 572.000
5.89387 517.000
5.91415 529.000
5.93443 576.000
5.95471 536.000
5.97499 528.000
5.99527 546.000
6.01555 567.000
6.03583 520.000
6.05611 523.000
6.07639 524.000
6.09667 598.000
6.11695 561.000
6.13723 540.000
6.15751 500.000
6.17779 532.000
6.19807 523.000
6.21835 550.000
6.23863 543.000
6.25891 562.000
6.27919 516.000
6.29947 522.000
6.31975 546.000
6.34003 519.000
6.36031 534.000
6.38059 506.000
6.40087 605.000
6.42115 574.000
6.44143 578.000
6.46171 637.000
6.48199 659.000
6.50227 651.000
6.52255 744.000
6.54283 815.000
6.56311 935.000
6.58339 1049.000
6.60367 1227.000
6.62395 1429.000
6.64423 1769.000
6.66451 2089.000
6.68479 2668.000
6.70507 3171.000
6.72536 3803.000
6.74564 4597.000
6.76592 5084.000
6.78620 5258.000
6.80648 5179.000
6.82676 4923.000
6.84704 4222.000
6.86732 3349.000
6.88760 2339.000
6.90788 1722.000
6.92816 1230.000
6.94844 987.000
6.96872 821.000
6.98900 680.000
7.00928 718.000
7.02956 617.000
7.04984 618.000
7.07012 540.000
7.09040 522.000
7.11068 518.000
7.13096 544.000
7.15124 476.000
7.17152 477.000
7.19180 483.000
7.21208 480.000
7.23236 450.000
7.25264 437.000
7.27292 456.000
7.29320 419.000
7.31348 421.000
7.33376 389.000
7.35404 399.000
7.37432 423.000
7.39460 436.000
7.41488 446.000
7.43516 409.000
7.45544 425.000
7.47572 376.000
7.49600 454.000
7.51628 435.000
7.53656 433.000
7.55684 416.000
7.57712 426.000
7.59740 403.000
7.61768 406.000
7.63796 409.000
7.65824 419.000
7.67852 377.000
7.69880 408.000
7.71908 382.000
7.73936 421.000
7.75964 431.000
7.77992 397.000
7.80020 421.000
7.82048 369.000
7.84076 399.000
7.86104 444.000
7.88132 433.000
7.90160 444.000
7.92188 449.000
7.94216 460.000
7.96244 456.000
7.98272 517.000
8.00300 448.000
8.02328 502.000
8.04356 549.000
8.06384 626.000
8.08412 659.000
8.10440 763.000
8.12468 789.000
8.14496 917.000
8.16524 1059.000
8.18552 1206.000
8.20580 1434.000
8.22608 1807.000
8.24636 2116.000
8.26664 2646.000
8.28692 3424.000
8.30720 4141.000
8.32748 5159.000
8.34776 5322.000
8.36804 5341.000
8.38832 4726.000
8.40860 3768.000
8.42888 2687.000
8.44916 1910.000
8.46944 1342.000
8.48972 1036.000
8.51000 847.000
8.53028 769.000
8.55056 704.000
8.57084 626.000
8.59112 613.000
8.61140 594.000
8.63168 562.000
8.65197 541.000
8.67225 548.000
8.69253 525.000
8.71281 435.000
8.73309 451.000
8.75337 458.000
8.77365 470.000
8.79393 440.000
8.81421 434.000
8.83449 411.000
8.85477 402.000
8.87505 391.000
8.89533 438.000
8.91561 380.000
8.93589 398.000
8.95617 394.000
8.97645 372.000
8.99673 376.000
9.01701 413.000
9.03729 371.000
9.05757 387.000
9.07785 384.000
9.09813 378.000
9.11841 392.000
9.13869 361.000
9.15897 380.000
9.17925 358.000
9.19953 378.000
9.21981 398.000
9.24009 383.000
9.26037 336.000
9.28065 382.000
9.30093 311.000
9.32121 341.000
9.34149 380.000
9.36177 387.000
9.38205 360.000
9.40233 386.000
9.42261 349.000
9.44289 378.000
9.46317 351.000
9.48345 368.000
9.50373 383.000
9.52401 362.000
9.54429 369.000
9.56457 376.000
9.58485 345.000
9.60513 335.000
9.62541 382.000
9.64569 377.000
9.66597 378.000
9.68625 357.000
9.70653 361.000
9.72681 337.000
9.74709 373.000
9.76737 324.000
9.78765 380.000
9.80793 391.000
9.82821 393.000
9.84849 365.000
9.86877 432.000
9.88905 344.000
9.90933 371.000
9.92961 370.000
9.94989 367.000
9.97017 332.000
9.99045 328.000
10.01073 357.000
10.03101 366.000
10.05129 348.000
10.07157 356.000
10.09185 377.000
10.11213 352.000
10.13241 354.000
10.15269 363.000
10.17297 371.000
10.19325 340.000
10.21353 365.000
10.23381 373.000
10.25409 338.000
10.27437 395.000
10.29465 339.000
10.31493 360.000
10.33521 406.000
10.35549 395.000
10.37577 459.000
10.39605 473.000
10.41633 523.000
10.43661 534.000
10.45689 652.000
10.47717 807.000
10.49745 869.000
10.51773 1001.000
10.53801 1040.000
10.55830 1026.000
10.57858 882.000
10.59886 787.000
10.61914 634.000
10.63942 561.000
10.65970 500.000
10.67998 422.000
10.70026 406.000
10.72054 417.000
10.74082 384.000
10.76110 387.000
10.78138 376.000
10.80166 373.000
10.82194 352.000
10.84222 365.000
10.86250 372.000
10.88278 358.000
10.90306 369.000
10.92334 356.000
10.94362 329.000
10.96390 368.000
10.98418 366.000
11.00446 331.000
11.02474 316.000
11.04502 297.000
11.06530 325.000
11.08558 332.000
11.10586 315.000
11.12614 331.000
11.14642 308.000
11.16670 366.000
11.18698 330.000
11.20726 355.000
11.22754 308.000
11.24782 331.000
11.26810 319.000
11.28838 320.000
11.30866 324.000
11.32894 323.000
11.34922 323.000
11.36950 330.000
11.38978 306.000
11.41006 301.000
11.43034 322.000
11.45062 318.000
11.47090 295.000
11.49118 319.000
11.51146 284.000
11.53174 345.000
11.55202 309.000
11.57230 330.000
11.59258 326.000
11.61286 296.000
11.63314 294.000
11.65342 328.000
11.67370 304.000
11.69398 344.000
11.71426 331.000
11.73454 336.000
11.75482 314.000
11.77510 316.000
11.79538 321.000
11.81566 314.000
11.83594 313.000
11.85622 340.000
11.87650 297.000
11.89678 324.000
11.91706 329.000
11.93734 332.000
11.95762 291.000
11.97790 273.000
11.99818 295.000
12.01846 314.000
12.03874 310.000
12.05902 305.000
12.07930 327.000
12.09958 309.000
12.11986 337.000
12.14014 303.000
12.16042 305.000
12.18070 327.000
12.20098 331.000
12.22126 312.000
12.24154 294.000
12.26182 327.000
12.28210 300.000
12.30238 337.000
12.32266 308.000
12.34294 345.000
12.36322 314.000
12.38350 310.000
12.40378 314.000
12.42406 303.000
12.44434 323.000
12.46463 302.000
12.48491 311.000
12.50519 293.000
12.52547 334.000
12.54575 307.000
12.56603 323.000
12.58631 282.000
12.60659 278.000
12.62687 342.000
12.64715 336.000
12.66743 309.000
12.68771 301.000
12.70799 342.000
12.72827 334.000
12.74855 353.000
12.76883 318.000
12.78911 331.000
12.80939 303.000
12.82967 349.000
12.84995 328.000
12.87023 331.000
12.89051 336.000
12.91079 391.000
12.93107 369.000
12.95135 359.000
12.97163 366.000
12.99191 384.000
13.01219 401.000
13.03247 399.000
13.05275 449.000
13.07303 529.000
13.09331 557.000
13.11359 619.000
13.13387 686.000
13.15415 708.000
13.17443 774.000
13.19471 756.000
13.21499 727.000
13.23527 656.000
13.25555 761.000
13.27583 732.000
13.29611 820.000
13.31639 863.000
13.33667 876.000
13.35695 893.000
13.37723 880.000
13.39751 905.000
13.41779 877.000
13.43807 903.000
13.45835 1040.000
13.47863 1199.000
13.49891 1392.000
13.51919 1415.000
13.53947 1334.000
13.55975 1329.000
13.58003 1223.000
13.60031 1106.000
13.62059 865.000
13.64087 864.000
13.66115 795.000
13.68143 658.000
13.70171 617.000
13.72199 588.000
13.74227 494.000
13.76255 430.000
13.78283 453.000
13.80311 450.000
13.82339 360.000
13.84367 430.000
13.86395 389.000
13.88423 367.000
13.90451 385.000
13.92479 394.000
13.94507 356.000
13.96535 354.000
13.98563 345.000
14.00591 378.000
14.02619 380.000
14.04647 381.000
14.06675 367.000
14.08703 360.000
14.10731 355.000
14.12759 376.000
14.14787 383.000
14.16815 336.000
14.18843 417.000
14.20871 415.000
14.22899 416.000
14.24927 395.000
14.26955 386.000
14.28983 420.000
14.31011 416.000
14.33039 458.000
14.35067 406.000
14.37096 436.000
14.39124 454.000
14.41152 438.000
14.43180 510.000
14.45208 527.000
14.47236 562.000
14.49264 637.000
14.51292 715.000
14.53320 805.000
14.55348 1038.000
14.57376 1233.000
14.59404 1405.000
14.61432 1690.000
14.63460 1826.000
14.65488 2041.000
14.67516 1940.000
14.69544 1770.000
14.71572 1444.000
14.73600 1139.000
14.75628 1014.000
14.77656 888.000
14.79684 918.000
14.81712 928.000
14.83740 1094.000
14.85768 1135.000
14.87796 1294.000
14.89824 1227.000
14.91852 1182.000
14.93880 1132.000
14.95908 953.000
14.97936 805.000
14.99964 662.000
15.01992 610.000
15.04020 516.000
15.06048 500.000
15.08076 431.000
15.10104 430.000
15.12132 423.000
15.14160 403.000
15.16188 393.000
15.18216 378.000
15.20244 412.000
15.22272 417.000
15.24300 447.000
15.26328 405.000
15.28356 409.000
15.30384 371.000
15.32412 410.000
15.34440 394.000
15.36468 417.000
15.38496 391.000
15.40524 390.000
15.42552 414.000
15.44580 377.000
15.46608 418.000
15.48636 403.000
15.50664 493.000
15.52692 383.000
15.54720 388.000
15.56748 423.000
15.58776 376.000
15.60804 422.000
15.62832 397.000
15.64860 393.000
15.66888 429.000
15.68916 412.000
15.70944 435.000
15.72972 377.000
15.75000 385.000
15.77028 455.000
15.79056 438.000
15.81084 428.000
15.83112 446.000
15.85140 457.000
15.87168 450.000
15.89196 469.000
15.91224 442.000
15.93252 411.000
15.95280 470.000
15.97308 502.000
15.99336 509.000
16.01364 527.000
16.03392 581.000
16.05420 570.000
16.07448 595.000
16.09476 566.000
16.11504 641.000
16.13532 711.000
16.15560 770.000
16.17588 820.000
16.19616 962.000
16.21644 1180.000
16.23672 1344.000
16.25700 1543.000
16.27729 1923.000
16.29757 2243.000
16.31785 2549.000
16.33813 2755.000
16.35841 2891.000
16.37869 2807.000
16.39897 2640.000
16.41925 2294.000
16.43953 2080.000
16.45981 1720.000
16.48009 1625.000
16.50037 1429.000
16.52065 1419.000
16.54093 1411.000
16.56121 1537.000
16.58149 1675.000
16.60177 1694.000
16.62205 1743.000
16.64233 1741.000
16.66261 1835.000
16.68289 1841.000
16.70317 2016.000
16.72345 2142.000
16.74373 2490.000
16.76401 2474.000
16.78429 2440.000
16.80457 2404.000
16.82485 2066.000
16.84513 1870.000
16.86541 1620.000
16.88569 1409.000
16.90597 1480.000
16.92625 1517.000
16.94653 1579.000
16.96681 1862.000
16.98709 2249.000
17.00737 2627.000
17.02765 3003.000
17.04793 3441.000
17.06821 3811.000
17.08849 4056.000
17.10877 4120.000
17.12905 3884.000
17.14933 3453.000
17.16961 2940.000
17.18989 2493.000
17.21017 1965.000
17.23045 1609.000
17.25073 1330.000
17.27101 1103.000
17.29129 950.000
17.31157 901.000
17.33185 885.000
17.35213 797.000
17.37241 748.000
17.39269 736.000
17.41297 739.000
17.43325 747.000
17.45353 679.000
17.47381 660.000
17.49409 652.000
17.51437 693.000
17.53465 695.000
17.55493 684.000
17.57521 645.000
17.59549 706.000
17.61577 652.000
17.63605 703.000
17.65633 742.000
17.67661 735.000
17.69689 789.000
17.71717 802.000
17.73745 854.000
17.75773 863.000
17.77801 979.000
17.79829 946.000
17.81857 999.000
17.83885 1088.000
17.85913 1322.000
17.87941 1506.000
17.89969 1663.000
17.91997 2003.000
17.94025 2471.000
17.96053 2896.000
17.98081 3375.000
18.00109 4085.000
18.02137 4674.000
18.04165 5278.000
18.06193 5762.000
18.08221 6106.000
18.10249 6073.000
18.12277 5503.000
18.14305 5088.000
18.16333 4337.000
18.18362 3549.000
18.20390 2939.000
18.22418 2354.000
18.24446 1940.000
18.26474 1704.000
18.28502 1460.000
18.30530 1311.000
18.32558 1253.000
18.34586 1130.000
18.36614 1078.000
18.38642 1041.000
18.40670 1040.000
18.42698 1072.000
18.44726 1070.000
18.46754 1106.000
18.48782 1186.000
18.50810 1368.000
18.52838 1502.000
18.54866 1665.000
18.56894 1852.000
18.58922 2110.000
18.60950 2402.000
18.62978 2699.000
18.65006 2849.000
18.67034 3038.000
18.69062 3038.000
18.71090 2896.000
18.73118 2785.000
18.75146 2550.000
18.77174 2215.000
18.79202 2021.000
18.81230 1827.000
18.83258 1558.000
18.85286 1421.000
18.87314 1421.000
18.89342 1299.000
18.91370 1279.000
18.93398 1280.000
18.95426 1373.000
18.97454 1383.000
18.99482 1429.000
19.01510 1410.000
19.03538 1481.000
19.05566 1329.000
19.07594 1315.000
19.09622 1106.000
19.11650 1033.000
19.13678 970.000
19.15706 904.000
19.17734 898.000
19.19762 953.000
19.21790 891.000
19.23818 936.000
19.25846 1048.000
19.27874 1079.000
19.29902 1169.000
19.31930 1373.000
19.33958 1523.000
19.35986 1702.000
19.38014 2007.000
19.40042 2267.000
19.42070 2603.000
19.44098 2899.000
19.46126 3109.000
19.48154 3457.000
19.50182 3516.000
19.52210 3363.000
19.54238 3103.000
19.56266 2836.000
19.58294 2435.000
19.60322 2096.000
19.62350 1838.000
19.64378 1722.000
19.66406 1678.000
19.68434 1641.000
19.70462 1609.000
19.72490 1687.000
19.74518 1875.000
19.76546 1936.000
19.78574 2227.000
19.80602 2478.000
19.82630 2714.000
19.84658 2971.000
19.86686 3341.000
19.88714 3622.000
19.90742 3641.000
19.92770 3527.000
19.94798 3332.000
19.96826 2992.000
19.98854 2756.000
20.00882 2422.000
20.02910 2203.000
20.04938 2169.000
20.06966 2125.000
20.08995 2143.000
20.11023 2217.000
20.13051 2352.000
20.15079 2435.000
20.17107 2600.000
20.19135 2667.000
20.21163 2654.000
20.23191 2873.000
20.25219 3057.000
20.27247 3201.000
20.29275 3520.000
20.31303 3759.000
20.33331 3856.000
20.35359 3718.000
20.37387 3177.000
20.39415 2730.000
20.41443 2260.000
20.43471 1739.000
20.45499 1420.000
20.47527 1246.000
20.49555 1214.000
20.51583 1115.000
20.53611 1098.000
20.55639 1049.000
20.57667 1005.000
20.59695 913.000
20.61723 906.000
20.63751 902.000
20.65779 810.000
20.67807 809.000
20.69835 822.000
20.71863 806.000
20.73891 844.000
20.75919 776.000
20.77947 761.000
20.79975 802.000
20.82003 844.000
20.84031 789.000
20.86059 870.000
20.88087 901.000
20.90115 945.000
20.92143 931.000
20.94171 907.000
20.96199 1016.000
20.98227 966.000
21.00255 1039.000
21.02283 1070.000
21.04311 1158.000
21.06339 1288.000
21.08367 1356.000
21.10395 1403.000
21.12423 1611.000
21.14451 1717.000
21.16479 1858.000
21.18507 2158.000
21.20535 2278.000
21.22563 2567.000
21.24591 2972.000
21.26619 3362.000
21.28647 3813.000
21.30675 4538.000
21.32703 5069.000
21.34731 5781.000
21.36759 6438.000
21.38787 6705.000
21.40815 7281.000
21.42843 7668.000
21.44871 8030.000
21.46899 8585.000
21.48927 8795.000
21.50955 8932.000
21.52983 9026.000
21.55011 8923.000
21.57039 8962.000
21.59067 8647.000
21.61095 8135.000
21.63123 7423.000
21.65151 6909.000
21.67179 6071.000
21.69207 5340.000
21.71235 4573.000
21.73263 3769.000
21.75291 3131.000
21.77319 2651.000
21.79347 2120.000
21.81375 1792.000
21.83403 1581.000
21.85431 1335.000
21.87459 1227.000
21.89487 1207.000
21.91515 1035.000
21.93543 1007.000
21.95571 949.000
21.97599 930.000
21.99628 908.000
22.01656 855.000
22.03684 830.000
22.05712 871.000
22.07740 822.000
22.09768 827.000
22.11796 790.000
22.13824 806.000
22.15852 842.000
22.17880 846.000
22.19908 848.000
22.21936 834.000
22.23964 862.000
22.25992 870.000
22.28020 960.000
22.30048 902.000
22.32076 934.000
22.34104 999.000
22.36132 1068.000
22.38160 1117.000
22.40188 1169.000
22.42216 1213.000
22.44244 1313.000
22.46272 1292.000
22.48300 1357.000
22.50328 1323.000
22.52356 1245.000
22.54384 1225.000
22.56412 1197.000
22.58440 1096.000
22.60468 1115.000
22.62496 1055.000
22.64524 969.000
22.66552 992.000
22.68580 955.000
22.70608 1004.000
22.72636 1017.000
22.74664 1084.000
22.76692 1080.000
22.78720 1124.000
22.80748 1207.000
22.82776 1233.000
22.84804 1352.000
22.86832 1332.000
22.88860 1324.000
22.90888 1361.000
22.92916 1348.000
22.94944 1309.000
22.96972 1276.000
22.99000 1254.000
23.01028 1178.000
23.03056 1080.000
23.05084 1003.000
23.07112 1012.000
23.09140 921.000
23.11168 872.000
23.13196 919.000
23.15224 780.000
23.17252 856.000
23.19280 921.000
23.21308 957.000
23.23336 955.000
23.25364 1122.000
23.27392 1101.000
23.29420 1264.000
23.31448 1425.000
23.33476 1541.000
23.35504 1777.000
23.37532 1786.000
23.39560 2048.000
23.41588 2351.000
23.43616 2494.000
23.45644 2622.000
23.47672 2844.000
23.49700 2897.000
23.51728 3021.000
23.53756 2804.000
23.55784 2825.000
23.57812 2600.000
23.59840 2508.000
23.61868 2214.000
23.63896 2037.000
23.65924 1851.000
23.67952 1745.000
23.69980 1579.000
23.72008 1517.000
23.74036 1466.000
23.76064 1394.000
23.78092 1322.000
23.80120 1322.000
23.82148 1265.000
23.84176 1265.000
23.86204 1173.000
23.88232 1011.000
23.90261 995.000
23.92289 927.000
23.94317 876.000
23.96345 817.000
23.98373 804.000
24.00401 753.000
24.02429 815.000
24.04457 786.000
24.06485 771.000
24.08513 806.000
24.10541 800.000
24.12569 854.000
24.14597 839.000
24.16625 908.000
24.18653 1029.000
24.20681 1112.000
24.22709 1204.000
24.24737 1350.000
24.26765 1462.000
24.28793 1640.000
24.30821 1723.000
24.32849 1838.000
24.34877 1992.000
24.36905 2032.000
24.38933 1996.000
24.40961 1891.000
24.42989 1682.000
24.45017 1578.000
24.47045 1314.000
24.49073 1232.000
24.51101 1115.000
24.53129 1009.000
24.55157 930.000
24.57185 917.000
24.59213 984.000
24.61241 951.000
24.63269 994.000
24.65297 1069.000
24.67325 1070.000
24.69353 1106.000
24.71381 1094.000
24.73409 1066.000
24.75437 1132.000
24.77465 1039.000
24.79493 950.000
24.81521 883.000
24.83549 865.000
24.85577 829.000
24.87605 764.000
24.89633 835.000
24.91661 868.000
24.93689 836.000
24.95717 848.000
24.97745 865.000
24.99773 915.000
25.01801 1025.000
25.03829 1092.000
25.05857 1169.000
25.07885 1253.000
25.09913 1383.000
25.11941 1426.000
25.13969 1570.000
25.15997 1540.000
25.18025 1640.000
25.20053 1626.000
25.22081 1598.000
25.24109 1518.000
25.26137 1511.000
25.28165 1455.000
25.30193 1415.000
25.32221 1270.000
25.34249 1316.000
25.36277 1220.000
25.38305 1320.000
25.40333 1308.000
25.42361 1271.000
25.44389 1275.000
25.46417 1214.000
25.48445 1137.000
25.50473 1153.000
25.52501 1089.000
25.54529 927.000
25.56557 886.000
25.58585 843.000
25.60613 793.000
25.62641 733.000
25.64669 760.000
25.66697 723.000
25.68725 685.000
25.70753 651.000
25.72781 751.000
25.74809 812.000
25.76837 784.000
25.78865 805.000
25.80893 875.000
25.82922 860.000
25.84950 947.000
25.86978 1028.000
25.89006 1153.000
25.91034 1188.000
25.93062 1214.000
25.95090 1331.000
25.97118 1455.000
25.99146 1567.000
26.01174 1564.000
26.03202 1465.000
26.05230 1549.000
26.07258 1584.000
26.09286 1488.000
26.11314 1457.000
26.13342 1393.000
26.15370 1266.000
26.17398 1244.000
26.19426 1174.000
26.21454 1060.000
26.23482 1057.000
26.25510 981.000
26.27538 1003.000
26.29566 1073.000
26.31594 1088.000
26.33622 1010.000
26.35650 1078.000
26.37678 1146.000
26.39706 1100.000
26.41734 1210.000
26.43762 1253.000
26.45790 1330.000
26.47818 1358.000
26.49846 1446.000
26.51874 1405.000
26.53902 1398.000
26.55930 1444.000
26.57958 1383.000
26.59986 1394.000
26.62014 1328.000
26.64042 1324.000
26.66070 1357.000
26.68098 1249.000
26.70126 1221.000
26.72154 1239.000
26.74182 1221.000
26.76210 1158.000
26.78238 1163.000
26.80266 1222.000
26.82294 1260.000
26.84322 1384.000
26.86350 1425.000
26.88378 1499.000
26.90406 1546.000
26.92434 1538.000
26.94462 1547.000
26.96490 1566.000
26.98518 1482.000
27.00546 1456.000
27.02574 1354.000
27.04602 1343.000
27.06630 1322.000
27.08658 1348.000
27.10686 1224.000
27.12714 1239.000
27.14742 1192.000
27.16770 1133.000
27.18798 1107.000
27.20826 1095.000
27.22854 1095.000
27.24882 1042.000
27.26910 1140.000
27.28938 1103.000
27.30966 1032.000
27.32994 1132.000
27.35022 1104.000
27.37050 1123.000
27.39078 1177.000
27.41106 1173.000
27.43134 1204.000
27.45162 1226.000
27.47190 1210.000
27.49218 1150.000
27.51246 1078.000
27.53274 1132.000
27.55302 971.000
27.57330 908.000
27.59358 835.000
27.61386 756.000
27.63414 691.000
27.65442 664.000
27.67470 652.000
27.69498 619.000
27.71526 568.000
27.73555 565.000
27.75583 540.000
27.77611 541.000
27.79639 570.000
27.81667 532.000
27.83695 558.000
27.85723 563.000
27.87751 589.000
27.89779 493.000
27.91807 488.000
27.93835 541.000
27.95863 527.000
27.97891 502.000
27.99919 490.000
28.01947 534.000
28.03975 534.000
28.06003 512.000
28.08031 587.000
28.10059 564.000
28.12087 604.000
28.14115 559.000
28.16143 589.000
28.18171 628.000
28.20199 621.000
28.22227 728.000
28.24255 715.000
28.26283 709.000
28.28311 775.000
28.30339 807.000
28.32367 801.000
28.34395 849.000
28.36423 903.000
28.38451 968.000
28.40479 948.000
28.42507 1021.000
28.44535 1062.000
28.46563 1029.000
28.48591 1060.000
28.50619 1052.000
28.52647 1068.000
28.54675 1119.000
28.56703 1110.000
28.58731 934.000
28.60759 926.000
28.62787 883.000
28.64815 846.000
28.66843 892.000
28.68871 809.000
28.70899 735.000
28.72927 765.000
28.74955 786.000
28.76983 737.000
28.79011 692.000
28.81039 756.000
28.83067 743.000
28.85095 809.000
28.87123 800.000
28.89151 799.000
28.91179 822.000
28.93207 828.000
28.95235 887.000
28.97263 927.000
28.99291 983.000
29.01319 987.000
29.03347 1053.000
29.05375 966.000
29.07403 966.000
29.09431 1011.000
29.11459 950.000
29.13487 935.000
29.15515 961.000
29.17543 893.000
29.19571 881.000
29.21599 846.000
29.23627 903.000
29.25655 896.000
29.27683 866.000
29.29711 905.000
29.31739 899.000
29.33767 880.000
29.35795 898.000
29.37823 948.000
29.39851 912.000
29.41879 860.000
29.43907 907.000
29.45935 823.000
29.47963 800.000
29.49991 805.000
29.52019 798.000
29.54047 801.000
29.56075 817.000
29.58103 865.000
29.60131 846.000
29.62159 856.000
29.64188 942.000
29.66216 872.000
29.68244 897.000
29.70272 920.000
29.72300 939.000
29.74328 963.000
29.76356 964.000
29.78384 1023.000
29.80412 989.000
29.82440 953.000
29.84468 974.000
29.86496 975.000
29.88524 971.000
29.90552 995.000
29.92580 929.000
29.94608 915.000
29.96636 914.000
29.98664 968.000
30.00692 951.000
30.02720 921.000
30.04748 957.000
30.06776 783.000
30.08804 822.000
30.10832 785.000
30.12860 713.000
30.14888 740.000
30.16916 685.000
30.18944 640.000
30.20972 673.000
30.23000 624.000
30.25028 723.000
30.27056 751.000
30.29084 755.000
30.31112 748.000
30.33140 722.000
30.35168 837.000
30.37196 791.000
30.39224 826.000
30.41252 802.000
30.43280 766.000
30.45308 758.000
30.47336 705.000
30.49364 653.000
30.51392 633.000
30.53420 658.000
30.55448 589.000
30.57476 585.000
30.59504 545.000
30.61532 497.000
30.63560 567.000
30.65588 483.000
30.67616 471.000
30.69644 455.000
30.71672 448.000
30.73700 475.000
30.75728 478.000
30.77756 469.000
30.79784 457.000
30.81812 508.000
30.83840 472.000
30.85868 557.000
30.87896 523.000
30.89924 554.000
30.91952 551.000
30.93980 560.000
30.96008 597.000
30.98036 585.000
31.00064 634.000
31.02092 620.000
31.04120 674.000
31.06148 675.000
31.08176 709.000
31.10204 731.000
31.12232 702.000
31.14260 705.000
31.16288 695.000
31.18316 675.000
31.20344 727.000
31.22372 632.000
31.24400 645.000
31.26428 625.000
31.28456 573.000
31.30484 535.000
31.32512 511.000
31.34540 506.000
31.36568 515.000
31.38596 526.000
31.40624 487.000
31.42652 501.000
31.44680 484.000
31.46708 569.000
31.48736 481.000
31.50764 502.000
31.52792 506.000
31.54821 519.000
31.56849 539.000
31.58877 560.000
31.60905 581.000
31.62933 580.000
31.64961 582.000
31.66989 577.000
31.69017 628.000
31.71045 615.000
31.73073 601.000
31.75101 622.000
31.77129 636.000
31.79157 659.000
31.81185 668.000
31.83213 623.000
31.85241 698.000
31.87269 700.000
31.89297 665.000
31.91325 603.000
31.93353 653.000
31.95381 674.000
31.97409 642.000
31.99437 683.000
32.01465 650.000
32.03493 632.000
32.05521 681.000
32.07549 608.000
32.09577 596.000
32.11605 600.000
32.13633 612.000
32.15661 604.000
32.17689 549.000
32.19717 584.000
32.21745 620.000
32.23773 547.000
32.25801 535.000
32.27829 508.000
32.29857 523.000
32.31885 478.000
32.33913 543.000
32.35941 503.000
32.37969 515.000
32.39997 506.000
32.42025 512.000
32.44053 520.000
32.46081 457.000
32.48109 472.000
32.50137 483.000
32.52165 480.000
32.54193 475.000
32.56221 482.000
32.58249 464.000
32.60277 469.000
32.62305 521.000
32.64333 502.000
32.66361 493.000
32.68389 525.000
32.70417 502.000
32.72445 497.000
32.74473 489.000
32.76501 544.000
32.78529 513.000
32.80557 573.000
32.82585 493.000
32.84613 523.000
32.86641 566.000
32.88669 571.000
32.90697 601.000
32.92725 583.000
32.94753 640.000
32.96781 614.000
32.98809 621.000
33.00837 636.000
33.02865 651.000
33.04893 638.000
33.06921 629.000
33.08949 624.000
33.10977 587.000
33.13005 637.000
33.15033 611.000
33.17061 605.000
33.19089 686.000
33.21117 676.000
33.23145 712.000
33.25173 643.000
33.27201 689.000
33.29229 674.000
33.31257 668.000
33.33285 737.000
33.35313 681.000
33.37341 682.000
33.39369 674.000
33.41397 649.000
33.43425 649.000
33.45454 580.000
33.47482 601.000
33.49510 582.000
33.51538 584.000
33.53566 499.000
33.55594 560.000
33.57622 506.000
33.59650 505.000
33.61678 498.000
33.63706 501.000
33.65734 493.000
33.67762 490.000
33.69790 465.000
33.71818 513.000
33.73846 466.000
33.75874 440.000
33.77902 474.000
33.79930 483.000
33.81958 530.000
33.83986 511.000
33.86014 519.000
33.88042 546.000
33.90070 544.000
33.92098 550.000
33.94126 559.000
33.96154 541.000
33.98182 543.000
34.00210 584.000
34.02238 606.000
34.04266 632.000
34.06294 572.000
34.08322 604.000
34.10350 603.000
34.12378 604.000
34.14406 617.000
34.16434 639.000
34.18462 651.000
34.20490 594.000
34.22518 676.000
34.24546 706.000
34.26574 664.000
34.28602 692.000
34.30630 683.000
34.32658 700.000
34.34686 753.000
34.36714 773.000
34.38742 782.000
34.40770 882.000
34.42798 859.000
34.44826 945.000
34.46854 1009.000
34.48882 1048.000
34.50910 1080.000
34.52938 1150.000
34.54966 1080.000
34.56994 1102.000
34.59022 1109.000
34.61050 1084.000
34.63078 1019.000
34.65106 1010.000
34.67134 941.000
34.69162 891.000
34.71190 870.000
34.73218 877.000
34.75246 847.000
34.77274 821.000
34.79302 829.000
34.81330 846.000
34.83358 799.000
34.85386 806.000
34.87414 915.000
34.89442 815.000
34.91470 849.000
34.93498 858.000
34.95526 853.000
34.97554 892.000
34.99582 795.000
35.01610 771.000
35.03638 739.000
35.05666 760.000
35.07694 688.000
35.09722 699.000
35.11750 657.000
35.13778 679.000
35.15806 660.000
35.17834 664.000
35.19862 571.000
35.21890 587.000
35.23918 605.000
35.25946 570.000
35.27974 586.000
35.30002 540.000
35.32030 574.000
35.34058 610.000
35.36087 581.000
35.38115 598.000
35.40143 569.000
35.42171 625.000
35.44199 565.000
35.46227 571.000
35.48255 584.000
35.50283 567.000
35.52311 601.000
35.54339 567.000
35.56367 592.000
35.58395 610.000
35.60423 553.000
35.62451 510.000
35.64479 613.000
35.66507 525.000
35.68535 515.000
35.70563 461.000
35.72591 502.000
35.74619 473.000
35.76647 448.000
35.78675 505.000
35.80703 476.000
35.82731 457.000
35.84759 428.000
35.86787 453.000
35.88815 457.000
35.90843 480.000
35.92871 454.000
35.94899 430.000
35.96927 461.000
35.98955 481.000
36.00983 472.000
36.03011 452.000
36.05039 535.000
36.07067 521.000
36.09095 528.000
36.11123 498.000
36.13151 538.000
36.15179 577.000
36.17207 564.000
36.19235 533.000
36.21263 559.000
36.23291 586.000
36.25319 570.000
36.27347 583.000
36.29375 578.000
36.31403 595.000
36.33431 560.000
36.35459 539.000
36.37487 598.000
36.39515 583.000
36.41543 604.000
36.43571 598.000
36.45599 680.000
36.47627 675.000
36.49655 663.000
36.51683 688.000
36.53711 710.000
36.55739 734.000
36.57767 674.000
36.59795 738.000
36.61823 792.000
36.63851 793.000
36.65879 797.000
36.67907 843.000
36.69935 808.000
36.71963 757.000
36.73991 796.000
36.76019 804.000
36.78047 813.000
36.80075 834.000
36.82103 781.000
36.84131 763.000
36.86159 770.000
36.88187 739.000
36.90215 715.000
36.92243 709.000
36.94271 696.000
36.96299 701.000
36.98327 672.000
37.00355 598.000
37.02383 628.000
37.04411 636.000
37.06439 675.000
37.08467 631.000
37.10495 647.000
37.12523 667.000
37.14551 644.000
37.16579 603.000
37.18607 597.000
37.20635 591.000
37.22663 639.000
37.24691 578.000
37.26720 545.000
37.28748 540.000
37.30776 537.000
37.32804 573.000
37.34832 535.000
37.36860 538.000
37.38888 531.000
37.40916 564.000
37.42944 505.000
37.44972 521.000
37.47000 529.000
37.49028 539.000
37.51056 541.000
37.53084 568.000
37.55112 546.000
37.57140 533.000
37.59168 547.000
37.61196 528.000
37.63224 570.000
37.65252 562.000
37.67280 587.000
37.69308 591.000
37.71336 616.000
37.73364 602.000
37.75392 656.000
37.77420 587.000
37.79448 605.000
37.81476 689.000
37.83504 624.000
37.85532 619.000
37.87560 667.000
37.89588 690.000
37.91616 673.000
37.93644 659.000
37.95672 652.000
37.97700 699.000
37.99728 667.000
38.01756 671.000
38.03784 675.000
38.05812 606.000
38.07840 627.000
38.09868 625.000
38.11896 583.000
38.13924 612.000
38.15952 572.000
38.17980 549.000
38.20008 615.000
38.22036 567.000
38.24064 545.000
38.26092 564.000
38.28120 542.000
38.30148 520.000
38.32176 566.000
38.34204 557.000
38.36232 555.000
38.38260 594.000
38.40288 588.000
38.42316 540.000
38.44344 536.000
38.46372 526.000
38.48400 530.000
38.50428 531.000
38.52456 541.000
38.54484 533.000
38.56512 516.000
38.58540 508.000
38.60568 495.000
38.62596 497.000
38.64624 504.000
38.66652 443.000
38.68680 484.000
38.70708 470.000
38.72736 521.000
38.74764 467.000
38.76792 493.000
38.78820 458.000
38.80848 450.000
38.82876 428.000
38.84904 519.000
38.86932 430.000
38.88960 463.000
38.90988 478.000
38.93016 466.000
38.95044 470.000
38.97072 461.000
38.99100 495.000
39.01128 490.000
39.03156 477.000
39.05184 496.000
39.07212 468.000
39.09240 521.000
39.11268 503.000
39.13296 486.000
39.15324 510.000
39.17353 489.000
39.19381 494.000
39.21409 483.000
39.23437 532.000
39.25465 481.000
39.27493 529.000
39.29521 527.000
39.31549 549.000
39.33577 522.000
39.35605 534.000
39.37633 574.000
39.39661 540.000
39.41689 579.000
39.43717 652.000
39.45745 579.000
39.47773 574.000
39.49801 623.000
39.51829 624.000
39.53857 674.000
39.55885 595.000
39.57913 596.000
39.59941 635.000
39.61969 629.000
39.63997 630.000
39.66025 628.000
39.68053 642.000
39.70081 629.000
39.72109 585.000
39.74137 617.000
39.76165 590.000
39.78193 579.000
39.80221 621.000
39.82249 562.000
39.84277 550.000
39.86305 517.000
39.88333 577.000
39.90361 599.000
39.92389 593.000
39.94417 582.000
39.96445 651.000
39.98473 590.000
40.00501 610.000
40.02529 643.000
40.04557 649.000
40.06585 654.000
40.08613 692.000
40.10641 735.000
40.12669 728.000
40.14697 708.000
40.16725 705.000
40.18753 724.000
40.20781 739.000
40.22809 722.000
40.24837 698.000
40.26865 726.000
40.28893 750.000
40.30921 760.000
40.32949 694.000
40.34977 736.000
40.37005 795.000
40.39033 701.000
40.41061 679.000
40.43089 701.000
40.45117 655.000
40.47145 713.000
40.49173 592.000
40.51201 667.000
40.53229 604.000
40.55257 613.000
40.57285 526.000
40.59313 524.000
40.61341 541.000
40.63369 556.000
40.65397 557.000
40.67425 534.000
40.69453 485.000
40.71481 549.000
40.73509 464.000
40.75537 522.000
40.77565 525.000
40.79593 501.000
40.81621 502.000
40.83649 524.000
40.85677 516.000
40.87705 515.000
40.89733 540.000
40.91761 535.000
40.93789 524.000
40.95817 514.000
40.97845 526.000
40.99873 492.000
41.01901 494.000
41.03929 516.000
41.05957 528.000
41.07986 509.000
41.10014 498.000
41.12042 541.000
41.14070 579.000
41.16098 500.000
41.18126 553.000
41.20154 525.000
41.22182 587.000
41.24210 591.000
41.26238 566.000
41.28266 624.000
41.30294 569.000
41.32322 636.000
41.34350 623.000
41.36378 598.000
41.38406 655.000
41.40434 634.000
41.42462 621.000
41.44490 701.000
41.46518 653.000
41.48546 635.000
41.50574 724.000
41.52602 636.000
41.54630 670.000
41.56658 660.000
41.58686 647.000
41.60714 692.000
41.62742 707.000
41.64770 690.000
41.66798 697.000
41.68826 721.000
41.70854 695.000
41.72882 686.000
41.74910 656.000
41.76938 670.000
41.78966 701.000
41.80994 688.000
41.83022 630.000
41.85050 606.000
41.87078 600.000
41.89106 594.000
41.91134 586.000
41.93162 566.000
41.95190 527.000
41.97218 548.000
41.99246 539.000
42.01274 505.000
42.03302 536.000
42.05330 485.000
42.07358 493.000
42.09386 496.000
42.11414 474.000
42.13442 460.000
42.15470 440.000
42.17498 487.000
42.19526 478.000
42.21554 505.000
42.23582 465.000
42.25610 457.000
42.27638 433.000
42.29666 489.000
42.31694 499.000
42.33722 487.000
42.35750 432.000
42.37778 427.000
42.39806 452.000
42.41834 491.000
42.43862 418.000
42.45890 428.000
42.47918 407.000
42.49946 461.000
42.51974 413.000
42.54002 452.000
42.56030 413.000
42.58058 442.000
42.60086 450.000
42.62114 407.000
42.64142 423.000
42.66170 414.000
42.68198 446.000
42.70226 464.000
42.72254 409.000
42.74282 442.000
42.76310 412.000
42.78338 434.000
42.80366 475.000
42.82394 432.000
42.84422 451.000
42.86450 460.000
42.88478 475.000
42.90506 468.000
42.92534 464.000
42.94562 503.000
42.96590 451.000
42.98619 532.000
43.00647 465.000
43.02675 508.000
43.04703 496.000
43.06731 539.000
43.08759 540.000
43.10787 537.000
43.12815 505.000
43.14843 523.000
43.16871 562.000
43.18899 599.000
43.20927 531.000
43.22955 590.000
43.24983 574.000
43.27011 640.000
43.29039 645.000
43.31067 610.000
43.33095 571.000
43.35123 645.000
43.37151 595.000
43.39179 610.000
43.41207 573.000
43.43235 601.000
43.45263 605.000
43.47291 621.000
43.49319 611.000
43.51347 561.000
43.53375 621.000
43.55403 600.000
43.57431 642.000
43.59459 601.000
43.61487 589.000
43.63515 603.000
43.65543 591.000
43.67571 602.000
43.69599 645.000
43.71627 607.000
43.73655 624.000
43.75683 621.000
43.77711 573.000
43.79739 599.000
43.81767 622.000
43.83795 650.000
43.85823 687.000
43.87851 694.000
43.89879 651.000
43.91907 622.000
43.93935 654.000
43.95963 631.000
43.97991 644.000
44.00019 640.000
44.02047 632.000
44.04075 654.000
44.06103 622.000
44.08131 631.000
44.10159 587.000
44.12187 604.000
44.14215 613.000
44.16243 571.000
44.18271 565.000
44.20299 540.000
44.22327 571.000
44.24355 539.000
44.26383 536.000
44.28411 533.000
44.30439 502.000
44.32467 482.000
44.34495 505.000
44.36523 482.000
44.38551 531.000
44.40579 450.000
44.42607 511.000
44.44635 502.000
44.46663 489.000
44.48691 523.000
44.50719 502.000
44.52747 482.000
44.54775 537.000
44.56803 478.000
44.58831 482.000
44.60859 473.000
44.62887 487.000
44.64915 489.000
44.66943 519.000
44.68971 527.000
44.70999 477.000
44.73027 465.000
44.75055 541.000
44.77083 545.000
44.79111 488.000
44.81139 534.000
44.83167 506.000
44.85195 527.000
44.87223 560.000
44.89251 543.000
44.91280 508.000
44.93308 515.000
44.95336 525.000
44.97364 543.000
44.99392 511.000
45.01420 502.000
45.03448 522.000
45.05476 512.000
45.07504 507.000
45.09532 491.000
45.11560 466.000
45.13588 460.000
45.15616 481.000
45.17644 479.000
45.19672 465.000
45.21700 493.000
45.23728 485.000
45.25756 501.000
45.27784 486.000
45.29812 482.000
45.31840 476.000
45.33868 448.000
45.35896 482.000
45.37924 461.000
45.39952 483.000
45.41980 500.000
45.44008 484.000
45.46036 528.000
45.48064 498.000
45.50092 530.000
45.52120 515.000
45.54148 510.000
45.56176 491.000
45.58204 524.000
45.60232 503.000
45.62260 508.000
45.64288 497.000
45.66316 509.000
45.68344 531.000
45.70372 491.000
45.72400 510.000
45.74428 473.000
45.76456 469.000
45.78484 514.000
45.80512 556.000
45.82540 518.000
45.84568 497.000
45.86596 507.000
45.88624 493.000
45.90652 500.000
45.92680 501.000
45.94708 483.000
45.96736 493.000
45.98764 516.000
46.00792 487.000
46.02820 481.000
46.04848 494.000
46.06876 456.000
46.08904 476.000
46.10932 474.000
46.12960 499.000
46.14988 470.000
46.17016 516.000
46.19044 461.000
46.21072 500.000
46.23100 490.000
46.25128 489.000
46.27156 507.000
46.29184 517.000
46.31212 488.000
46.33240 509.000
46.35268 526.000
46.37296 522.000
46.39324 516.000
46.41352 553.000
46.43380 522.000
46.45408 560.000
46.47436 494.000
46.49464 492.000
46.51492 550.000
46.53520 500.000
46.55548 546.000
46.57576 544.000
46.59604 528.000
46.61632 534.000
46.63660 512.000
46.65688 533.000
46.67716 569.000
46.69744 539.000
46.71772 507.000
46.73800 507.000
46.75828 539.000
46.77856 508.000
46.79884 520.000
46.81913 504.000
46.83941 500.000
46.85969 518.000
46.87997 500.000
46.90025 466.000
46.92053 447.000
46.94081 476.000
46.96109 464.000
46.98137 450.000
47.00165 465.000
47.02193 488.000
47.04221 474.000
47.06249 484.000
47.08277 524.000
47.10305 513.000
47.12333 501.000
47.14361 511.000
47.16389 497.000
47.18417 512.000
47.20445 496.000
47.22473 582.000
47.24501 546.000
47.26529 545.000
47.28557 579.000
47.30585 566.000
47.32613 529.000
47.34641 600.000
47.36669 540.000
47.38697 555.000
47.40725 534.000
47.42753 576.000
47.44781 557.000
47.46809 570.000
47.48837 577.000
47.50865 533.000
47.52893 558.000
47.54921 529.000
47.56949 519.000
47.58977 525.000
47.61005 539.000
47.63033 593.000
47.65061 543.000
47.67089 515.000
47.69117 505.000
47.71145 527.000
47.73173 508.000
47.75201 475.000
47.77229 465.000
47.79257 521.000
47.81285 473.000
47.83313 516.000
47.85341 502.000
47.87369 481.000
47.89397 504.000
47.91425 448.000
47.93453 491.000
47.95481 484.000
47.97509 508.000
47.99537 484.000
48.01565 480.000
48.03593 451.000
48.05621 428.000
48.07649 478.000
48.09677 495.000
48.11705 478.000
48.13733 420.000
48.15761 427.000
48.17789 432.000
48.19817 433.000
48.21845 436.000
48.23873 432.000
48.25901 392.000
48.27929 459.000
48.29957 461.000
48.31985 459.000
48.34013 425.000
48.36041 436.000
48.38069 456.000
48.40097 426.000
48.42125 475.000
48.44153 461.000
48.46181 430.000
48.48209 430.000
48.50237 431.000
48.52265 446.000
48.54293 414.000
48.56321 421.000
48.58349 417.000
48.60377 409.000
48.62405 446.000
48.64433 471.000
48.66461 419.000
48.68489 399.000
48.70517 403.000
48.72546 412.000
48.74574 388.000
48.76602 399.000
48.78630 431.000
48.80658 427.000
48.82686 413.000
48.84714 404.000
48.86742 417.000
48.88770 361.000
48.90798 369.000
48.92826 434.000
48.94854 386.000
48.96882 407.000
48.98910 414.000
49.00938 418.000
49.02966 422.000
49.04994 417.000
49.07022 375.000
49.09050 420.000
49.11078 417.000
49.13106 415.000
49.15134 431.000
49.17162 415.000
49.19190 410.000
49.21218 439.000
49.23246 418.000
49.25274 433.000
49.27302 423.000
49.29330 453.000
49.31358 446.000
49.33386 391.000
49.35414 456.000
49.37442 435.000
49.39470 406.000
49.41498 458.000
49.43526 429.000
49.45554 433.000
49.47582 459.000
49.49610 439.000
49.51638 425.000
49.53666 443.000
49.55694 464.000
49.57722 417.000
49.59750 462.000
49.61778 458.000
49.63806 458.000
49.65834 434.000
49.67862 458.000
49.69890 442.000
49.71918 430.000
49.73946 430.000
49.75974 426.000
49.78002 439.000
49.80030 424.000
49.82058 415.000
49.84086 402.000
49.86114 443.000
49.88142 426.000
49.90170 430.000
49.92198 426.000
49.94226 492.000
49.96254 410.000
49.98282 438.000
50.00310 480.000
