5.00155 857.000
5.02183 875.000
5.04211 798.000
5.06239 919.000
5.08267 855.000
5.10295 822.000
5.12323 806.000
5.14351 825.000
5.16379 824.000
5.18407 796.000
5.20435 781.000
5.22463 742.000
5.24491 727.000
5.26519 782.000
5.28547 722.000
5.30575 688.000
5.32603 684.000
5.34631 704.000
5.36659 786.000
5.38687 711.000
5.40715 717.000
5.42743 728.000
5.44771 713.000
5.46799 643.000
5.48827 592.000
5.50855 614.000
5.52883 632.000
5.54911 636.000
5.56939 652.000
5.58967 651.000
5.60995 568.000
5.63023 685.000
5.65051 642.000
5.67079 634.000
5.69107 632.000
5.71135 583.000
5.73163 570.000
5.75191 607.000
5.77219 596.000
5.79247 565.000
5.81275 546.000
5.83303 610.000
5.85331 581.000
5.87359 554.000
5.89387 576.000
5.91415 590.000
5.93443 547.000
5.95471 519.000
5.97499 528.000
5.99527 575.000
6.01555 491.000
6.03583 558.000
6.05611 524.000
6.07639 502.000
6.09667 532.000
6.11695 517.000
6.13723 506.000
6.15751 526.000
6.17779 542.000
6.19807 533.000
6.21835 464.000
6.23863 490.000
6.25891 488.000
6.27919 486.000
6.29947 563.000
6.31975 492.000
6.34003 520.000
6.36031 549.000
6.38059 560.000
6.40087 540.000
6.42115 577.000
6.44143 560.000
6.46171 630.000
6.48199 638.000
6.50227 705.000
6.52255 734.000
6.54283 815.000
6.56311 1006.000
6.58339 996.000
6.60367 1216.000
6.62395 1413.000
6.64423 1798.000
6.66451 2089.000
6.68479 2509.000
6.70507 3264.000
6.72536 3811.000
6.74564 4309.000
6.76592 4870.000
6.78620 4992.000
6.80648 4930.000
6.82676 4527.000
6.84704 3712.000
6.86732 2876.000
6.88760 2076.000
6.90788 1393.000
6.92816 1146.000
6.94844 896.000
6.96872 762.000
6.98900 643.000
7.00928 609.000
7.02956 596.000
7.04984 559.000
7.07012 509.000
7.09040 486.000
7.11068 495.000
7.13096 520.000
7.15124 504.000
7.17152 480.000
7.19180 429.000
7.21208 409.000
7.23236 442.000
7.25264 425.000
7.27292 419.000
7.29320 451.000
7.31348 434.000
7.33376 422.000
7.35404 445.000
7.37432 396.000
7.39460 425.000
7.41488 409.000
7.43516 460.000
7.45544 410.000
7.47572 360.000
7.49600 410.000
7.51628 406.000
7.53656 409.000
7.55684 403.000
7.57712 412.000
7.59740 435.000
7.61768 377.000
7.63796 418.000
7.65824 373.000
7.67852 377.000
7.69880 403.000
7.71908 428.000
7.73936 414.000
7.75964 421.000
7.77992 396.000
7.80020 419.000
7.82048 373.000
7.84076 437.000
7.86104 446.000
7.88132 395.000
7.90160 417.000
7.92188 436.000
7.94216 434.000
7.96244 474.000
7.98272 503.000
8.00300 535.000
8.02328 515.000
8.04356 552.000
8.06384 582.000
8.08412 672.000
8.10440 735.000
8.12468 890.000
8.14496 998.000
8.16524 1151.000
8.18552 1325.000
8.20580 1570.000
8.22608 1968.000
8.24636 2356.000
8.26664 2756.000
8.28692 3358.000
8.30720 4121.000
8.32748 4801.000
8.34776 5097.000
8.36804 4896.000
8.38832 4300.000
8.40860 3252.000
8.42888 2464.000
8.44916 1747.000
8.46944 1233.000
8.48972 1032.000
8.51000 829.000
8.53028 750.000
8.55056 661.000
8.57084 607.000
8.59112 580.000
8.61140 542.000
8.63168 524.000
8.65197 543.000
8.67225 491.000
8.69253 449.000
8.71281 465.000
8.73309 427.000
8.75337 404.000
8.77365 403.000
8.79393 420.000
8.81421 425.000
8.83449 360.000
8.85477 409.000
8.87505 397.000
8.89533 415.000
8.91561 388.000
8.93589 409.000
8.95617 416.000
8.97645 421.000
8.99673 411.000
9.01701 405.000
9.03729 359.000
9.05757 390.000
9.07785 372.000
9.09813 382.000
9.11841 345.000
9.13869 379.000
9.15897 391.000
9.17925 409.000
9.19953 380.000
9.21981 377.000
9.24009 320.000
9.26037 393.000
9.28065 377.000
9.30093 346.000
9.32121 342.000
9.34149 380.000
9.36177 386.000
9.38205 388.000
9.40233 382.000
9.42261 352.000
9.44289 386.000
9.46317 350.000
9.48345 322.000
9.50373 329.000
9.52401 327.000
9.54429 353.000
9.56457 350.000
9.58485 350.000
9.60513 358.000
9.62541 369.000
9.64569 371.000
9.66597 339.000
9.68625 311.000
9.70653 320.000
9.72681 356.000
9.74709 399.000
9.76737 345.000
9.78765 328.000
9.80793 349.000
9.82821 345.000
9.84849 327.000
9.86877 386.000
9.88905 374.000
9.90933 347.000
9.92961 378.000
9.94989 361.000
9.97017 331.000
9.99045 355.000
10.01073 284.000
10.03101 351.000
10.05129 384.000
10.07157 336.000
10.09185 338.000
10.11213 330.000
10.13241 354.000
10.15269 348.000
10.17297 318.000
10.19325 363.000
10.21353 343.000
10.23381 345.000
10.25409 346.000
10.27437 348.000
10.29465 363.000
10.31493 395.000
10.33521 406.000
10.35549 400.000
10.37577 434.000
10.39605 455.000
10.41633 486.000
10.43661 563.000
10.45689 657.000
10.47717 781.000
10.49745 876.000
10.51773 934.000
10.53801 970.000
10.55830 993.000
10.57858 864.000
10.59886 728.000
10.61914 614.000
10.63942 479.000
10.65970 486.000
10.67998 456.000
10.70026 378.000
10.72054 411.000
10.74082 370.000
10.76110 360.000
10.78138 383.000
10.80166 397.000
10.82194 352.000
10.84222 340.000
10.86250 318.000
10.88278 299.000
10.90306 312.000
10.92334 308.000
10.94362 336.000
10.96390 296.000
10.98418 309.000
11.00446 323.000
11.02474 308.000
11.04502 318.000
11.06530 282.000
11.08558 299.000
11.10586 352.000
11.12614 308.000
11.14642 309.000
11.16670 324.000
11.18698 317.000
11.20726 317.000
11.22754 317.000
11.24782 316.000
11.26810 307.000
11.28838 291.000
11.30866 294.000
11.32894 318.000
11.34922 323.000
11.36950 303.000
11.38978 294.000
11.41006 302.000
11.43034 303.000
11.45062 278.000
11.47090 305.000
11.49118 309.000
11.51146 322.000
11.53174 284.000
11.55202 304.000
11.57230 267.000
11.59258 307.000
11.61286 320.000
11.63314 299.000
11.65342 270.000
11.67370 336.000
11.69398 322.000
11.71426 313.000
11.73454 335.000
11.75482 315.000
11.77510 281.000
11.79538 310.000
11.81566 335.000
11.83594 298.000
11.85622 294.000
11.87650 374.000
11.89678 313.000
11.91706 341.000
11.93734 314.000
11.95762 280.000
11.97790 312.000
11.99818 274.000
12.01846 320.000
12.03874 290.000
12.05902 314.000
12.07930 323.000
12.09958 320.000
12.11986 282.000
12.14014 313.000
12.16042 279.000
12.18070 343.000
12.20098 317.000
12.22126 309.000
12.24154 287.000
12.26182 331.000
12.28210 306.000
12.30238 303.000
12.32266 327.000
12.34294 331.000
12.36322 309.000
12.38350 312.000
12.40378 271.000
12.42406 325.000
12.44434 292.000
12.46463 312.000
12.48491 328.000
12.50519 322.000
12.52547 313.000
12.54575 314.000
12.56603 337.000
12.58631 302.000
12.60659 307.000
12.62687 322.000
12.64715 267.000
12.66743 333.000
12.68771 306.000
12.70799 309.000
12.72827 336.000
12.74855 305.000
12.76883 353.000
12.78911 342.000
12.80939 318.000
12.82967 305.000
12.84995 340.000
12.87023 317.000
12.89051 329.000
12.91079 328.000
12.93107 359.000
12.95135 349.000
12.97163 362.000
12.99191 379.000
13.01219 379.000
13.03247 444.000
13.05275 422.000
13.07303 519.000
13.09331 543.000
13.11359 595.000
13.13387 647.000
13.15415 702.000
13.17443 817.000
13.19471 739.000
13.21499 730.000
13.23527 715.000
13.25555 708.000
13.27583 773.000
13.29611 809.000
13.31639 840.000
13.33667 825.000
13.35695 808.000
13.37723 864.000
13.39751 799.000
13.41779 868.000
13.43807 942.000
13.45835 1027.000
13.47863 1165.000
13.49891 1323.000
13.51919 1350.000
13.53947 1443.000
13.55975 1262.000
13.58003 1112.000
13.60031 993.000
13.62059 933.000
13.64087 848.000
13.66115 711.000
13.68143 651.000
13.70171 597.000
13.72199 506.000
13.74227 453.000
13.76255 431.000
13.78283 392.000
13.80311 407.000
13.82339 400.000
13.84367 381.000
13.86395 359.000
13.88423 372.000
13.90451 380.000
13.92479 373.000
13.94507 384.000
13.96535 384.000
13.98563 351.000
14.00591 361.000
14.02619 341.000
14.04647 337.000
14.06675 350.000
14.08703 388.000
14.10731 352.000
14.12759 378.000
14.14787 395.000
14.16815 369.000
14.18843 374.000
14.20871 365.000
14.22899 388.000
14.24927 390.000
14.26955 373.000
14.28983 402.000
14.31011 392.000
14.33039 405.000
14.35067 409.000
14.37096 426.000
14.39124 395.000
14.41152 470.000
14.43180 503.000
14.45208 524.000
14.47236 541.000
14.49264 659.000
14.51292 679.000
14.53320 793.000
14.55348 997.000
14.57376 1166.000
14.59404 1413.000
14.61432 1649.000
14.63460 1880.000
14.65488 1919.000
14.67516 1893.000
14.69544 1793.000
14.71572 1379.000
14.73600 1209.000
14.75628 961.000
14.77656 889.000
14.79684 929.000
14.81712 952.000
14.83740 1071.000
14.85768 1127.000
14.87796 1247.000
14.89824 1218.000
14.91852 1173.000
14.93880 1080.000
14.95908 925.000
14.97936 783.000
14.99964 645.000
15.01992 534.000
15.04020 480.000
15.06048 463.000
15.08076 457.000
15.10104 466.000
15.12132 406.000
15.14160 416.000
15.16188 418.000
15.18216 431.000
15.20244 368.000
15.22272 385.000
15.24300 389.000
15.26328 370.000
15.28356 408.000
15.30384 410.000
15.32412 430.000
15.34440 396.000
15.36468 384.000
15.38496 419.000
15.40524 402.000
15.42552 389.000
15.44580 392.000
15.46608 365.000
15.48636 413.000
15.50664 386.000
15.52692 427.000
15.54720 382.000
15.56748 435.000
15.58776 398.000
15.60804 423.000
15.62832 383.000
15.64860 363.000
15.66888 417.000
15.68916 392.000
15.70944 383.000
15.72972 423.000
15.75000 397.000
15.77028 382.000
15.79056 418.000
15.81084 409.000
15.83112 467.000
15.85140 424.000
15.87168 440.000
15.89196 436.000
15.91224 453.000
15.93252 463.000
15.95280 499.000
15.97308 451.000
15.99336 472.000
16.01364 495.000
16.03392 478.000
16.05420 497.000
16.07448 507.000
16.09476 574.000
16.11504 661.000
16.13532 702.000
16.15560 766.000
16.17588 866.000
16.19616 921.000
16.21644 1120.000
16.23672 1324.000
16.25700 1578.000
16.27729 1903.000
16.29757 2218.000
16.31785 2405.000
16.33813 2824.000
16.35841 2860.000
16.37869 2730.000
16.39897 2473.000
16.41925 2263.000
16.43953 2028.000
16.45981 1742.000
16.48009 1513.000
16.50037 1424.000
16.52065 1418.000
16.54093 1450.000
16.56121 1528.000
16.58149 1694.000
16.60177 1667.000
16.62205 1770.000
16.64233 1790.000
16.66261 1758.000
16.68289 1884.000
16.70317 1963.000
16.72345 2146.000
16.74373 2399.000
16.76401 2400.000
16.78429 2451.000
16.80457 2344.000
16.82485 2054.000
16.84513 1722.000
16.86541 1646.000
16.88569 1471.000
16.90597 1343.000
16.92625 1496.000
16.94653 1662.000
16.96681 1896.000
16.98709 2254.000
17.00737 2659.000
17.02765 2989.000
17.04793 3591.000
17.06821 3895.000
17.08849 4128.000
17.10877 4152.000
17.12905 3846.000
17.14933 3492.000
17.16961 2926.000
17.18989 2340.000
17.21017 1884.000
17.23045 1506.000
17.25073 1198.000
17.27101 1154.000
17.29129 894.000
17.31157 851.000
17.33185 794.000
17.35213 754.000
17.37241 699.000
17.39269 686.000
17.41297 666.000
17.43325 658.000
17.45353 628.000
17.47381 634.000
17.49409 653.000
17.51437 651.000
17.53465 623.000
17.55493 651.000
17.57521 656.000
17.59549 663.000
17.61577 666.000
17.63605 702.000
17.65633 663.000
17.67661 685.000
17.69689 719.000
17.71717 708.000
17.73745 765.000
17.75773 812.000
17.77801 872.000
17.79829 911.000
17.81857 942.000
17.83885 1137.000
17.85913 1272.000
17.87941 1419.000
17.89969 1647.000
17.91997 1932.000
17.94025 2363.000
17.96053 2901.000
17.98081 3295.000
18.00109 4025.000
18.02137 4584.000
18.04165 5236.000
18.06193 5809.000
18.08221 6109.000
18.10249 5999.000
18.12277 5682.000
18.14305 4917.000
18.16333 4061.000
18.18362 3422.000
18.20390 2840.000
18.22418 2106.000
18.24446 1720.000
18.26474 1554.000
18.28502 1383.000
18.30530 1165.000
18.32558 1134.000
18.34586 1032.000
18.36614 1071.000
18.38642 995.000
18.40670 1022.000
18.42698 1013.000
18.44726 1080.000
18.46754 1111.000
18.48782 1175.000
18.50810 1248.000
18.52838 1396.000
18.54866 1630.000
18.56894 1818.000
18.58922 2099.000
18.60950 2386.000
18.62978 2597.000
18.65006 2904.000
18.67034 3003.000
18.69062 3108.000
18.71090 2981.000
18.73118 2832.000
18.75146 2540.000
18.77174 2232.000
18.79202 1874.000
18.81230 1737.000
18.83258 1555.000
18.85286 1331.000
18.87314 1256.000
18.89342 1270.000
18.91370 1227.000
18.93398 1315.000
18.95426 1386.000
18.97454 1435.000
18.99482 1464.000
19.01510 1476.000
19.03538 1491.000
19.05566 1361.000
19.07594 1200.000
19.09622 1120.000
19.11650 1040.000
19.13678 924.000
19.15706 829.000
19.17734 888.000
19.19762 877.000
19.21790 891.000
19.23818 951.000
19.25846 1022.000
19.27874 1080.000
19.29902 1116.000
19.31930 1270.000
19.33958 1416.000
19.35986 1660.000
19.38014 1898.000
19.40042 2128.000
19.42070 2511.000
19.44098 2874.000
19.46126 3241.000
19.48154 3421.000
19.50182 3481.000
19.52210 3383.000
19.54238 3016.000
19.56266 2739.000
19.58294 2431.000
19.60322 2082.000
19.62350 1898.000
19.64378 1732.000
19.66406 1595.000
19.68434 1618.000
19.70462 1674.000
19.72490 1719.000
19.74518 1782.000
19.76546 1933.000
19.78574 2167.000
19.80602 2443.000
19.82630 2804.000
19.84658 3024.000
19.86686 3309.000
19.88714 3581.000
19.90742 3680.000
19.92770 3438.000
19.94798 3213.000
19.96826 3001.000
19.98854 2612.000
20.00882 2386.000
20.02910 2190.000
20.04938 2040.000
20.06966 2060.000
20.08995 2154.000
20.11023 2255.000
20.13051 2361.000
20.15079 2488.000
20.17107 2524.000
20.19135 2662.000
20.21163 2678.000
20.23191 2750.000
20.25219 2913.000
20.27247 3169.000
20.29275 3393.000
20.31303 3761.000
20.33331 3756.000
20.35359 3657.000
20.37387 3224.000
20.39415 2628.000
20.41443 2096.000
20.43471 1798.000
20.45499 1468.000
20.47527 1122.000
20.49555 1145.000
20.51583 1038.000
20.53611 1052.000
20.55639 955.000
20.57667 956.000
20.59695 941.000
20.61723 947.000
20.63751 870.000
20.65779 814.000
20.67807 823.000
20.69835 752.000
20.71863 810.000
20.73891 823.000
20.75919 771.000
20.77947 783.000
20.79975 803.000
20.82003 819.000
20.84031 841.000
20.86059 869.000
20.88087 854.000
20.90115 875.000
20.92143 931.000
20.94171 903.000
20.96199 1016.000
20.98227 1012.000
21.00255 1058.000
21.02283 1108.000
21.04311 1125.000
21.06339 1232.000
21.08367 1321.000
21.10395 1481.000
21.12423 1577.000
21.14451 1725.000
21.16479 1932.000
21.18507 2108.000
21.20535 2311.000
21.22563 2572.000
21.24591 2927.000
21.26619 3326.000
21.28647 3823.000
21.30675 4378.000
21.32703 4987.000
21.34731 5691.000
21.36759 6208.000
21.38787 6850.000
21.40815 7287.000
21.42843 7744.000
21.44871 8034.000
21.46899 8711.000
21.48927 8766.000
21.50955 8863.000
21.52983 9117.000
21.55011 9001.000
21.57039 8741.000
21.59067 8410.000
21.61095 7945.000
21.63123 7360.000
21.65151 6703.000
21.67179 5824.000
21.69207 5153.000
21.71235 4357.000
21.73263 3668.000
21.75291 3003.000
21.77319 2511.000
21.79347 2093.000
21.81375 1828.000
21.83403 1551.000
21.85431 1432.000
21.87459 1258.000
21.89487 1143.000
21.91515 1065.000
21.93543 1033.000
21.95571 1057.000
21.97599 933.000
21.99628 902.000
22.01656 899.000
22.03684 838.000
22.05712 815.000
22.07740 898.000
22.09768 800.000
22.11796 812.000
22.13824 804.000
22.15852 797.000
22.17880 782.000
22.19908 822.000
22.21936 828.000
22.23964 826.000
22.25992 900.000
22.28020 827.000
22.30048 984.000
22.32076 962.000
22.34104 1065.000
22.36132 1036.000
22.38160 1110.000
22.40188 1176.000
22.42216 1171.000
22.44244 1248.000
22.46272 1314.000
22.48300 1382.000
22.50328 1276.000
22.52356 1271.000
22.54384 1270.000
22.56412 1162.000
22.58440 1107.000
22.60468 1079.000
22.62496 1025.000
22.64524 951.000
22.66552 952.000
22.68580 956.000
22.70608 975.000
22.72636 1039.000
22.74664 1044.000
22.76692 1071.000
22.78720 1131.000
22.80748 1231.000
22.82776 1275.000
22.84804 1356.000
22.86832 1332.000
22.88860 1302.000
22.90888 1311.000
22.92916 1298.000
22.94944 1318.000
22.96972 1315.000
22.99000 1201.000
23.01028 1128.000
23.03056 1090.000
23.05084 1028.000
23.07112 969.000
23.09140 907.000
23.11168 856.000
23.13196 833.000
23.15224 874.000
23.17252 880.000
23.19280 908.000
23.21308 967.000
23.23336 1002.000
23.25364 1081.000
23.27392 1154.000
23.29420 1241.000
23.31448 1394.000
23.33476 1501.000
23.35504 1638.000
23.37532 1752.000
23.39560 2030.000
23.41588 2198.000
23.43616 2456.000
23.45644 2791.000
23.47672 2705.000
23.49700 2908.000
23.51728 3005.000
23.53756 2858.000
23.55784 2786.000
23.57812 2627.000
23.59840 2304.000
23.61868 2158.000
23.63896 1947.000
23.65924 1729.000
23.67952 1630.000
23.69980 1573.000
23.72008 1439.000
23.74036 1342.000
23.76064 1346.000
23.78092 1351.000
23.80120 1274.000
23.82148 1271.000
23.84176 1122.000
23.86204 1093.000
23.88232 1083.000
23.90261 932.000
23.92289 930.000
23.94317 853.000
23.96345 830.000
23.98373 783.000
24.00401 724.000
24.02429 766.000
24.04457 754.000
24.06485 803.000
24.08513 807.000
24.10541 845.000
24.12569 918.000
24.14597 865.000
24.16625 979.000
24.18653 1018.000
24.20681 1087.000
24.22709 1256.000
24.24737 1239.000
24.26765 1446.000
24.28793 1655.000
24.30821 1742.000
24.32849 1867.000
24.34877 2045.000
24.36905 2029.000
24.38933 2005.000
24.40961 1897.000
24.42989 1686.000
24.45017 1565.000
24.47045 1391.000
24.49073 1215.000
24.51101 1007.000
24.53129 968.000
24.55157 973.000
24.57185 905.000
24.59213 924.000
24.61241 912.000
24.63269 933.000
24.65297 957.000
24.67325 1039.000
24.69353 1056.000
24.71381 1164.000
24.73409 1096.000
24.75437 1074.000
24.77465 1019.000
24.79493 982.000
24.81521 941.000
24.83549 847.000
24.85577 808.000
24.87605 794.000
24.89633 801.000
24.91661 777.000
24.93689 818.000
24.95717 832.000
24.97745 921.000
24.99773 896.000
25.01801 1002.000
25.03829 1142.000
25.05857 1170.000
25.07885 1274.000
25.09913 1399.000
25.11941 1394.000
25.13969 1586.000
25.15997 1581.000
25.18025 1626.000
25.20053 1625.000
25.22081 1660.000
25.24109 1581.000
25.26137 1452.000
25.28165 1404.000
25.30193 1322.000
25.32221 1344.000
25.34249 1265.000
25.36277 1208.000
25.38305 1206.000
25.40333 1249.000
25.42361 1223.000
25.44389 1225.000
25.46417 1218.000
25.48445 1134.000
25.50473 1161.000
25.52501 961.000
25.54529 940.000
25.56557 850.000
25.58585 851.000
25.60613 769.000
25.62641 734.000
25.64669 767.000
25.66697 734.000
25.68725 724.000
25.70753 724.000
25.72781 757.000
25.74809 813.000
25.76837 754.000
25.78865 797.000
25.80893 794.000
25.82922 884.000
25.84950 920.000
25.86978 1006.000
25.89006 1097.000
25.91034 1189.000
25.93062 1279.000
25.95090 1328.000
25.97118 1450.000
25.99146 1541.000
26.01174 1620.000
26.03202 1644.000
26.05230 1625.000
26.07258 1511.000
26.09286 1471.000
26.11314 1394.000
26.13342 1320.000
26.15370 1299.000
26.17398 1197.000
26.19426 1176.000
26.21454 1054.000
26.23482 1064.000
26.25510 1033.000
26.27538 948.000
26.29566 1028.000
26.31594 1047.000
26.33622 1039.000
26.35650 1056.000
26.37678 1084.000
26.39706 1102.000
26.41734 1130.000
26.43762 1281.000
26.45790 1257.000
26.47818 1303.000
26.49846 1420.000
26.51874 1388.000
26.53902 1426.000
26.55930 1356.000
26.57958 1368.000
26.59986 1447.000
26.62014 1403.000
26.64042 1331.000
26.66070 1246.000
26.68098 1320.000
26.70126 1279.000
26.72154 1228.000
26.74182 1184.000
26.76210 1158.000
26.78238 1167.000
26.80266 1231.000
26.82294 1207.000
26.84322 1335.000
26.86350 1410.000
26.88378 1524.000
26.90406 1514.000
26.92434 1609.000
26.94462 1562.000
26.96490 1579.000
26.98518 1577.000
27.00546 1374.000
27.02574 1430.000
27.04602 1470.000
27.06630 1297.000
27.08658 1328.000
27.10686 1259.000
27.12714 1172.000
27.14742 1228.000
27.16770 1148.000
27.18798 1070.000
27.20826 1105.000
27.22854 1034.000
27.24882 1057.000
27.26910 1074.000
27.28938 1103.000
27.30966 1054.000
27.32994 1157.000
27.35022 1067.000
27.37050 1064.000
27.39078 1198.000
27.41106 1158.000
27.43134 1145.000
27.45162 1226.000
27.47190 1166.000
27.49218 1079.000
27.51246 1049.000
27.53274 1037.000
27.55302 854.000
27.57330 903.000
27.59358 802.000
27.61386 736.000
27.63414 746.000
27.65442 633.000
27.67470 619.000
27.69498 571.000
27.71526 534.000
27.73555 569.000
27.75583 554.000
27.77611 484.000
27.79639 495.000
27.81667 549.000
27.83695 485.000
27.85723 550.000
27.87751 501.000
27.89779 460.000
27.91807 485.000
27.93835 510.000
27.95863 491.000
27.97891 504.000
27.99919 520.000
28.01947 524.000
28.03975 527.000
28.06003 506.000
28.08031 521.000
28.10059 554.000
28.12087 569.000
28.14115 572.000
28.16143 568.000
28.18171 606.000
28.20199 591.000
28.22227 685.000
28.24255 722.000
28.26283 672.000
28.28311 768.000
28.30339 758.000
28.32367 798.000
28.34395 885.000
28.36423 911.000
28.38451 957.000
28.40479 983.000
28.42507 942.000
28.44535 1046.000
28.46563 1007.000
28.48591 1010.000
28.50619 1013.000
28.52647 1055.000
28.54675 1030.000
28.56703 1035.000
28.58731 976.000
28.60759 963.000
28.62787 878.000
28.64815 839.000
28.66843 820.000
28.68871 762.000
28.70899 706.000
28.72927 735.000
28.74955 706.000
28.76983 756.000
28.79011 773.000
28.81039 743.000
28.83067 763.000
28.85095 802.000
28.87123 734.000
28.89151 737.000
28.91179 836.000
28.93207 881.000
28.95235 904.000
28.97263 912.000
28.99291 927.000
29.01319 990.000
29.03347 986.000
29.05375 972.000
29.07403 927.000
29.09431 927.000
29.11459 889.000
29.13487 904.000
29.15515 864.000
29.17543 880.000
29.19571 810.000
29.21599 812.000
29.23627 859.000
29.25655 823.000
29.27683 879.000
29.29711 883.000
29.31739 908.000
29.33767 808.000
29.35795 908.000
29.37823 831.000
29.39851 901.000
29.41879 854.000
29.43907 827.000
29.45935 873.000
29.47963 816.000
29.49991 802.000
29.52019 772.000
29.54047 830.000
29.56075 835.000
29.58103 836.000
29.60131 866.000
29.62159 863.000
29.64188 842.000
29.66216 834.000
29.68244 902.000
29.70272 884.000
29.72300 941.000
29.74328 969.000
29.76356 914.000
29.78384 1004.000
29.80412 976.000
29.82440 930.000
29.84468 976.000
29.86496 885.000
29.88524 980.000
29.90552 962.000
29.92580 998.000
29.94608 938.000
29.96636 945.000
29.98664 955.000
30.00692 890.000
30.02720 925.000
30.04748 854.000
30.06776 850.000
30.08804 876.000
30.10832 759.000
30.12860 761.000
30.14888 660.000
30.16916 672.000
30.18944 723.000
30.20972 607.000
30.23000 702.000
30.25028 640.000
30.27056 689.000
30.29084 718.000
30.31112 731.000
30.33140 775.000
30.35168 825.000
30.37196 815.000
30.39224 843.000
30.41252 808.000
30.43280 772.000
30.45308 812.000
30.47336 704.000
30.49364 651.000
30.51392 644.000
30.53420 590.000
30.55448 553.000
30.57476 555.000
30.59504 486.000
30.61532 494.000
30.63560 464.000
30.65588 472.000
30.67616 459.000
30.69644 468.000
30.71672 466.000
30.73700 481.000
30.75728 462.000
30.77756 488.000
30.79784 472.000
30.81812 463.000
30.83840 506.000
30.85868 530.000
30.87896 513.000
30.89924 544.000
30.91952 568.000
30.93980 572.000
30.96008 591.000
30.98036 611.000
31.00064 630.000
31.02092 654.000
31.04120 665.000
31.06148 691.000
31.08176 682.000
31.10204 651.000
31.12232 655.000
31.14260 722.000
31.16288 718.000
31.18316 728.000
31.20344 651.000
31.22372 634.000
31.24400 615.000
31.26428 609.000
31.28456 606.000
31.30484 533.000
31.32512 533.000
31.34540 516.000
31.36568 482.000
31.38596 516.000
31.40624 509.000
31.42652 469.000
31.44680 476.000
31.46708 533.000
31.48736 504.000
31.50764 516.000
31.52792 513.000
31.54821 510.000
31.56849 516.000
31.58877 508.000
31.60905 562.000
31.62933 564.000
31.64961 550.000
31.66989 603.000
31.69017 583.000
31.71045 615.000
31.73073 553.000
31.75101 607.000
31.77129 660.000
31.79157 619.000
31.81185 666.000
31.83213 625.000
31.85241 622.000
31.87269 620.000
31.89297 640.000
31.91325 611.000
31.93353 662.000
31.95381 699.000
31.97409 674.000
31.99437 683.000
32.01465 678.000
32.03493 556.000
32.05521 615.000
32.07549 572.000
32.09577 599.000
32.11605 597.000
32.13633 630.000
32.15661 601.000
32.17689 572.000
32.19717 562.000
32.21745 568.000
32.23773 556.000
32.25801 538.000
32.27829 537.000
32.29857 551.000
32.31885 501.000
32.33913 547.000
32.35941 485.000
32.37969 488.000
32.39997 515.000
32.42025 466.000
32.44053 517.000
32.46081 475.000
32.48109 510.000
32.50137 466.000
32.52165 463.000
32.54193 442.000
32.56221 434.000
32.58249 491.000
32.60277 460.000
32.62305 467.000
32.64333 502.000
32.66361 500.000
32.68389 488.000
32.70417 491.000
32.72445 549.000
32.74473 537.000
32.76501 539.000
32.78529 547.000
32.80557 573.000
32.82585 475.000
32.84613 533.000
32.86641 565.000
32.88669 519.000
32.90697 570.000
32.92725 540.000
32.94753 551.000
32.96781 633.000
32.98809 613.000
33.00837 636.000
33.02865 625.000
33.04893 646.000
33.06921 612.000
33.08949 599.000
33.10977 594.000
33.13005 622.000
33.15033 619.000
33.17061 620.000
33.19089 603.000
33.21117 651.000
33.23145 699.000
33.25173 663.000
33.27201 731.000
33.29229 729.000
33.31257 743.000
33.33285 731.000
33.35313 715.000
33.37341 696.000
33.39369 646.000
33.41397 642.000
33.43425 579.000
33.45454 587.000
33.47482 532.000
33.49510 568.000
33.51538 496.000
33.53566 512.000
33.55594 493.000
33.57622 498.000
33.59650 523.000
33.61678 478.000
33.63706 497.000
33.65734 478.000
33.67762 485.000
33.69790 448.000
33.71818 526.000
33.73846 480.000
33.75874 493.000
33.77902 511.000
33.79930 517.000
33.81958 533.000
33.83986 560.000
33.86014 532.000
33.88042 570.000
33.90070 552.000
33.92098 544.000
33.94126 563.000
33.96154 578.000
33.98182 540.000
34.00210 592.000
34.02238 571.000
34.04266 614.000
34.06294 614.000
34.08322 641.000
34.10350 592.000
34.12378 647.000
34.14406 625.000
34.16434 645.000
34.18462 659.000
34.20490 615.000
34.22518 614.000
34.24546 657.000
34.26574 662.000
34.28602 681.000
34.30630 656.000
34.32658 694.000
34.34686 744.000
34.36714 759.000
34.38742 711.000
34.40770 755.000
34.42798 831.000
34.44826 957.000
34.46854 973.000
34.48882 986.000
34.50910 1065.000
34.52938 1115.000
34.54966 1064.000
34.56994 1139.000
34.59022 1111.000
34.61050 1049.000
34.63078 1032.000
34.65106 991.000
34.67134 923.000
34.69162 847.000
34.71190 821.000
34.73218 780.000
34.75246 778.000
34.77274 773.000
34.79302 774.000
34.81330 768.000
34.83358 762.000
34.85386 848.000
34.87414 835.000
34.89442 874.000
34.91470 831.000
34.93498 887.000
34.95526 786.000
34.97554 806.000
34.99582 880.000
35.01610 757.000
35.03638 755.000
35.05666 718.000
35.07694 677.000
35.09722 654.000
35.11750 679.000
35.13778 597.000
35.15806 632.000
35.17834 621.000
35.19862 547.000
35.21890 565.000
35.23918 561.000
35.25946 581.000
35.27974 538.000
35.30002 560.000
35.32030 529.000
35.34058 553.000
35.36087 592.000
35.38115 550.000
35.40143 566.000
35.42171 577.000
35.44199 582.000
35.46227 573.000
35.48255 571.000
35.50283 602.000
35.52311 598.000
35.54339 561.000
35.56367 607.000
35.58395 595.000
35.60423 554.000
35.62451 612.000
35.64479 549.000
35.66507 550.000
35.68535 518.000
35.70563 513.000
35.72591 522.000
35.74619 484.000
35.76647 500.000
35.78675 454.000
35.80703 446.000
35.82731 435.000
35.84759 423.000
35.86787 412.000
35.88815 428.000
35.90843 444.000
35.92871 456.000
35.94899 462.000
35.96927 426.000
35.98955 469.000
36.00983 495.000
36.03011 533.000
36.05039 469.000
36.07067 459.000
36.09095 481.000
36.11123 511.000
36.13151 524.000
36.15179 537.000
36.17207 513.000
36.19235 540.000
36.21263 551.000
36.23291 595.000
36.25319 574.000
36.27347 553.000
36.29375 545.000
36.31403 548.000
36.33431 558.000
36.35459 561.000
36.37487 599.000
36.39515 543.000
36.41543 544.000
36.43571 618.000
36.45599 637.000
36.47627 679.000
36.49655 633.000
36.51683 677.000
36.53711 732.000
36.55739 730.000
36.57767 748.000
36.59795 736.000
36.61823 803.000
36.63851 741.000
36.65879 793.000
36.67907 792.000
36.69935 886.000
36.71963 846.000
36.73991 809.000
36.76019 823.000
36.78047 838.000
36.80075 808.000
36.82103 814.000
36.84131 745.000
36.86159 709.000
36.88187 684.000
36.90215 673.000
36.92243 678.000
36.94271 679.000
36.96299 639.000
36.98327 623.000
37.00355 653.000
37.02383 638.000
37.04411 670.000
37.06439 621.000
37.08467 644.000
37.10495 625.000
37.12523 609.000
37.14551 595.000
37.16579 577.000
37.18607 551.000
37.20635 612.000
37.22663 564.000
37.24691 604.000
37.26720 549.000
37.28748 573.000
37.30776 554.000
37.32804 526.000
37.34832 545.000
37.36860 536.000
37.38888 540.000
37.40916 501.000
37.42944 545.000
37.44972 551.000
37.47000 478.000
37.49028 507.000
37.51056 496.000
37.53084 556.000
37.55112 555.000
37.57140 545.000
37.59168 521.000
37.61196 571.000
37.63224 527.000
37.65252 533.000
37.67280 559.000
37.69308 554.000
37.71336 541.000
37.73364 579.000
37.75392 563.000
37.77420 609.000
37.79448 603.000
37.81476 646.000
37.83504 633.000
37.85532 627.000
37.87560 620.000
37.89588 676.000
37.91616 722.000
37.93644 648.000
37.95672 666.000
37.97700 691.000
37.99728 665.000
38.01756 680.000
38.03784 681.000
38.05812 653.000
38.07840 644.000
38.09868 635.000
38.11896 639.000
38.13924 614.000
38.15952 531.000
38.17980 555.000
38.20008 565.000
38.22036 554.000
38.24064 538.000
38.26092 551.000
38.28120 547.000
38.30148 545.000
38.32176 560.000
38.34204 559.000
38.36232 566.000
38.38260 552.000
38.40288 544.000
38.42316 531.000
38.44344 562.000
38.46372 541.000
38.48400 531.000
38.50428 531.000
38.52456 511.000
38.54484 531.000
38.56512 514.000
38.58540 505.000
38.60568 486.000
38.62596 472.000
38.64624 470.000
38.66652 455.000
38.68680 473.000
38.70708 488.000
38.72736 499.000
38.74764 438.000
38.76792 457.000
38.78820 478.000
38.80848 445.000
38.82876 447.000
38.84904 444.000
38.86932 471.000
38.88960 450.000
38.90988 457.000
38.93016 424.000
38.95044 462.000
38.97072 516.000
38.99100 490.000
39.01128 456.000
39.03156 477.000
39.05184 477.000
39.07212 481.000
39.09240 502.000
39.11268 483.000
39.13296 492.000
39.15324 505.000
39.17353 520.000
39.19381 530.000
39.21409 517.000
39.23437 515.000
39.25465 516.000
39.27493 513.000
39.29521 554.000
39.31549 542.000
39.33577 524.000
39.35605 499.000
39.37633 531.000
39.39661 567.000
39.41689 588.000
39.43717 527.000
39.45745 590.000
39.47773 548.000
39.49801 580.000
39.51829 647.000
39.53857 640.000
39.55885 610.000
39.57913 621.000
39.59941 628.000
39.61969 661.000
39.63997 590.000
39.66025 582.000
39.68053 604.000
39.70081 605.000
39.72109 590.000
39.74137 610.000
39.76165 594.000
39.78193 547.000
39.80221 557.000
39.82249 565.000
39.84277 576.000
39.86305 545.000
39.88333 550.000
39.90361 551.000
39.92389 573.000
39.94417 580.000
39.96445 558.000
39.98473 589.000
40.00501 609.000
40.02529 649.000
40.04557 673.000
40.06585 701.000
40.08613 649.000
40.10641 696.000
40.12669 726.000
40.14697 708.000
40.16725 725.000
40.18753 713.000
40.20781 706.000
40.22809 740.000
40.24837 693.000
40.26865 727.000
40.28893 689.000
40.30921 712.000
40.32949 718.000
40.34977 740.000
40.37005 655.000
40.39033 671.000
40.41061 698.000
40.43089 662.000
40.45117 631.000
40.47145 622.000
40.49173 603.000
40.51201 585.000
40.53229 630.000
40.55257 607.000
40.57285 565.000
40.59313 524.000
40.61341 496.000
40.63369 467.000
40.65397 530.000
40.67425 543.000
40.69453 491.000
40.71481 478.000
40.73509 492.000
40.75537 524.000
40.77565 472.000
40.79593 488.000
40.81621 491.000
40.83649 497.000
40.85677 475.000
40.87705 480.000
40.89733 510.000
40.91761 512.000
40.93789 525.000
40.95817 529.000
40.97845 540.000
40.99873 514.000
41.01901 515.000
41.03929 456.000
41.05957 507.000
41.07986 500.000
41.10014 519.000
41.12042 509.000
41.14070 496.000
41.16098 524.000
41.18126 551.000
41.20154 546.000
41.22182 589.000
41.24210 547.000
41.26238 579.000
41.28266 547.000
41.30294 594.000
41.32322 604.000
41.34350 640.000
41.36378 624.000
41.38406 612.000
41.40434 649.000
41.42462 597.000
41.44490 614.000
41.46518 645.000
41.48546 621.000
41.50574 676.000
41.52602 649.000
41.54630 671.000
41.56658 641.000
41.58686 627.000
41.60714 649.000
41.62742 671.000
41.64770 663.000
41.66798 716.000
41.68826 706.000
41.70854 678.000
41.72882 690.000
41.74910 683.000
41.76938 680.000
41.78966 677.000
41.80994 672.000
41.83022 645.000
41.85050 619.000
41.87078 591.000
41.89106 601.000
41.91134 578.000
41.93162 571.000
41.95190 564.000
41.97218 484.000
41.99246 494.000
42.01274 506.000
42.03302 497.000
42.05330 494.000
42.07358 486.000
42.09386 469.000
42.11414 452.000
42.13442 473.000
42.15470 522.000
42.17498 447.000
42.19526 456.000
42.21554 484.000
42.23582 467.000
42.25610 477.000
42.27638 469.000
42.29666 437.000
42.31694 471.000
42.33722 443.000
42.35750 424.000
42.37778 443.000
42.39806 451.000
42.41834 474.000
42.43862 432.000
42.45890 423.000
42.47918 449.000
42.49946 444.000
42.51974 430.000
42.54002 449.000
42.56030 415.000
42.58058 429.000
42.60086 417.000
42.62114 458.000
42.64142 447.000
42.66170 403.000
42.68198 436.000
42.70226 426.000
42.72254 449.000
42.74282 434.000
42.76310 440.000
42.78338 462.000
42.80366 439.000
42.82394 439.000
42.84422 451.000
42.86450 482.000
42.88478 440.000
42.90506 419.000
42.92534 438.000
42.94562 431.000
42.96590 457.000
42.98619 469.000
43.00647 479.000
43.02675 427.000
43.04703 499.000
43.06731 510.000
43.08759 471.000
43.10787 504.000
43.12815 543.000
43.14843 528.000
43.16871 568.000
43.18899 530.000
43.20927 571.000
43.22955 575.000
43.24983 598.000
43.27011 624.000
43.29039 626.000
43.31067 572.000
43.33095 562.000
43.35123 643.000
43.37151 620.000
43.39179 595.000
43.41207 616.000
43.43235 563.000
43.45263 543.000
43.47291 567.000
43.49319 585.000
43.51347 568.000
43.53375 529.000
43.55403 547.000
43.57431 563.000
43.59459 607.000
43.61487 601.000
43.63515 555.000
43.65543 619.000
43.67571 569.000
43.69599 566.000
43.71627 616.000
43.73655 554.000
43.75683 621.000
43.77711 635.000
43.79739 640.000
43.81767 607.000
43.83795 603.000
43.85823 616.000
43.87851 627.000
43.89879 674.000
43.91907 642.000
43.93935 663.000
43.95963 661.000
43.97991 629.000
44.00019 582.000
44.02047 660.000
44.04075 626.000
44.06103 649.000
44.08131 610.000
44.10159 583.000
44.12187 614.000
44.14215 588.000
44.16243 580.000
44.18271 578.000
44.20299 573.000
44.22327 532.000
44.24355 529.000
44.26383 542.000
44.28411 507.000
44.30439 480.000
44.32467 494.000
44.34495 487.000
44.36523 486.000
44.38551 478.000
44.40579 478.000
44.42607 501.000
44.44635 462.000
44.46663 459.000
44.48691 517.000
44.50719 474.000
44.52747 458.000
44.54775 481.000
44.56803 431.000
44.58831 513.000
44.60859 456.000
44.62887 500.000
44.64915 476.000
44.66943 508.000
44.68971 494.000
44.70999 499.000
44.73027 520.000
44.75055 513.000
44.77083 511.000
44.79111 516.000
44.81139 513.000
44.83167 534.000
44.85195 491.000
44.87223 477.000
44.89251 522.000
44.91280 510.000
44.93308 507.000
44.95336 535.000
44.97364 508.000
44.99392 479.000
45.01420 508.000
45.03448 518.000
45.05476 514.000
45.07504 499.000
45.09532 462.000
45.11560 480.000
45.13588 431.000
45.15616 467.000
45.17644 482.000
45.19672 455.000
45.21700 449.000
45.23728 424.000
45.25756 497.000
45.27784 483.000
45.29812 449.000
45.31840 444.000
45.33868 434.000
45.35896 529.000
45.37924 438.000
45.39952 485.000
45.41980 460.000
45.44008 478.000
45.46036 524.000
45.48064 477.000
45.50092 499.000
45.52120 470.000
45.54148 498.000
45.56176 493.000
45.58204 509.000
45.60232 490.000
45.62260 515.000
45.64288 522.000
45.66316 481.000
45.68344 482.000
45.70372 522.000
45.72400 498.000
45.74428 513.000
45.76456 466.000
45.78484 541.000
45.80512 542.000
45.82540 522.000
45.84568 513.000
45.86596 521.000
45.88624 498.000
45.90652 474.000
45.92680 462.000
45.94708 497.000
45.96736 484.000
45.98764 506.000
46.00792 499.000
46.02820 484.000
46.04848 489.000
46.06876 464.000
46.08904 503.000
46.10932 497.000
46.12960 504.000
46.14988 522.000
46.17016 510.000
46.19044 471.000
46.21072 475.000
46.23100 494.000
46.25128 483.000
46.27156 553.000
46.29184 515.000
46.31212 500.000
46.33240 449.000
46.35268 520.000
46.37296 479.000
46.39324 510.000
46.41352 487.000
46.43380 525.000
46.45408 555.000
46.47436 540.000
46.49464 536.000
46.51492 510.000
46.53520 520.000
46.55548 529.000
46.57576 492.000
46.59604 512.000
46.61632 498.000
46.63660 524.000
46.65688 537.000
46.67716 530.000
46.69744 498.000
46.71772 509.000
46.73800 495.000
46.75828 518.000
46.77856 496.000
46.79884 485.000
46.81913 506.000
46.83941 497.000
46.85969 496.000
46.87997 464.000
46.90025 482.000
46.92053 511.000
46.94081 480.000
46.96109 466.000
46.98137 447.000
47.00165 431.000
47.02193 468.000
47.04221 493.000
47.06249 461.000
47.08277 493.000
47.10305 489.000
47.12333 500.000
47.14361 504.000
47.16389 518.000
47.18417 514.000
47.20445 473.000
47.22473 519.000
47.24501 539.000
47.26529 551.000
47.28557 519.000
47.30585 560.000
47.32613 571.000
47.34641 566.000
47.36669 546.000
47.38697 573.000
47.40725 543.000
47.42753 540.000
47.44781 516.000
47.46809 550.000
47.48837 500.000
47.50865 558.000
47.52893 566.000
47.54921 558.000
47.56949 516.000
47.58977 530.000
47.61005 533.000
47.63033 494.000
47.65061 508.000
47.67089 534.000
47.69117 511.000
47.71145 502.000
47.73173 503.000
47.75201 481.000
47.77229 520.000
47.79257 513.000
47.81285 495.000
47.83313 478.000
47.85341 465.000
47.87369 487.000
47.89397 499.000
47.91425 475.000
47.93453 460.000
47.95481 476.000
47.97509 453.000
47.99537 472.000
48.01565 428.000
48.03593 436.000
48.05621 427.000
48.07649 411.000
48.09677 427.000
48.11705 442.000
48.13733 434.000
48.15761 438.000
48.17789 412.000
48.19817 432.000
48.21845 417.000
48.23873 443.000
48.25901 430.000
48.27929 440.000
48.29957 404.000
48.31985 419.000
48.34013 462.000
48.36041 428.000
48.38069 457.000
48.40097 408.000
48.42125 407.000
48.44153 433.000
48.46181 425.000
48.48209 397.000
48.50237 421.000
48.52265 417.000
48.54293 417.000
48.56321 430.000
48.58349 462.000
48.60377 409.000
48.62405 432.000
48.64433 407.000
48.66461 391.000
48.68489 423.000
48.70517 416.000
48.72546 434.000
48.74574 421.000
48.76602 424.000
48.78630 403.000
48.80658 383.000
48.82686 417.000
48.84714 416.000
48.86742 385.000
48.88770 407.000
48.90798 355.000
48.92826 411.000
48.94854 406.000
48.96882 399.000
48.98910 394.000
49.00938 394.000
49.02966 407.000
49.04994 393.000
49.07022 396.000
49.09050 410.000
49.11078 403.000
49.13106 452.000
49.15134 448.000
49.17162 423.000
49.19190 391.000
49.21218 405.000
49.23246 422.000
49.25274 399.000
49.27302 418.000
49.29330 353.000
49.31358 417.000
49.33386 445.000
49.35414 434.000
49.37442 413.000
49.39470 427.000
49.41498 444.000
49.43526 416.000
49.45554 388.000
49.47582 425.000
49.49610 415.000
49.51638 401.000
49.53666 456.000
49.55694 497.000
49.57722 450.000
49.59750 389.000
49.61778 429.000
49.63806 422.000
49.65834 409.000
49.67862 425.000
49.69890 419.000
49.71918 428.000
49.73946 436.000
49.75974 422.000
49.78002 444.000
49.80030 437.000
49.82058 412.000
49.84086 466.000
49.86114 415.000
49.88142 404.000
49.90170 441.000
49.92198 442.000
49.94226 403.000
49.96254 455.000
49.98282 399.000
50.00310 448.000
