5.00155 862.000
5.02183 892.000
5.04211 853.000
5.06239 865.000
5.08267 815.000
5.10295 853.000
5.12323 779.000
5.14351 832.000
5.16379 752.000
5.18407 795.000
5.20435 775.000
5.22463 808.000
5.24491 788.000
5.26519 812.000
5.28547 710.000
5.30575 769.000
5.32603 702.000
5.34631 688.000
5.36659 714.000
5.38687 730.000
5.40715 688.000
5.42743 694.000
5.44771 745.000
5.46799 738.000
5.48827 674.000
5.50855 675.000
5.52883 663.000
5.54911 680.000
5.56939 695.000
5.58967 645.000
5.60995 607.000
5.63023 643.000
5.65051 652.000
5.67079 637.000
5.69107 669.000
5.71135 617.000
5.73163 614.000
5.75191 597.000
5.77219 590.000
5.79247 623.000
5.81275 600.000
5.83303 592.000
5.85331 610.000
5.87359 595.000
5.89387 596.000
5.91415 553.000
5.93443 550.000
5.95471 519.000
5.97499 571.000
5.99527 546.000
6.01555 592.000
6.03583 543.000
6.05611 550.000
6.07639 607.000
6.09667 523.000
6.11695 548.000
6.13723 539.000
6.15751 551.000
6.17779 545.000
6.19807 513.000
6.21835 568.000
6.23863 544.000
6.25891 543.000
6.27919 546.000
6.29947 523.000
6.31975 564.000
6.34003 591.000
6.36031 600.000
6.38059 676.000
6.40087 651.000
6.42115 709.000
6.44143 700.000
6.46171 687.000
6.48199 667.000
6.50227 666.000
6.52255 741.000
6.54283 745.000
6.56311 819.000
6.58339 848.000
6.60367 1007.000
6.62395 1170.000
6.64423 1344.000
6.66451 1539.000
6.68479 1960.000
6.70507 2321.000
6.72536 2838.000
6.74564 3434.000
6.76592 4105.000
6.78620 4440.000
6.80648 4869.000
6.82676 4981.000
6.84704 4743.000
6.86732 4147.000
6.88760 3449.000
6.90788 2558.000
6.92816 1917.000
6.94844 1420.000
6.96872 1074.000
6.98900 832.000
7.00928 706.000
7.02956 601.000
7.04984 562.000
7.07012 543.000
7.09040 541.000
7.11068 576.000
7.13096 563.000
7.15124 468.000
7.17152 500.000
7.19180 548.000
7.21208 498.000
7.23236 486.000
7.25264 485.000
7.27292 459.000
7.29320 509.000
7.31348 431.000
7.33376 497.000
7.35404 505.000
7.37432 471.000
7.39460 443.000
7.41488 420.000
7.43516 463.000
7.45544 459.000
7.47572 430.000
7.49600 461.000
7.51628 458.000
7.53656 498.000
7.55684 490.000
7.57712 488.000
7.59740 491.000
7.61768 504.000
7.63796 474.000
7.65824 465.000
7.67852 502.000
7.69880 497.000
7.71908 482.000
7.73936 517.000
7.75964 530.000
7.77992 584.000
7.80020 568.000
7.82048 554.000
7.84076 619.000
7.86104 579.000
7.88132 508.000
7.90160 520.000
7.92188 498.000
7.94216 495.000
7.96244 512.000
7.98272 509.000
8.00300 508.000
8.02328 591.000
8.04356 561.000
8.06384 554.000
8.08412 621.000
8.10440 733.000
8.12468 744.000
8.14496 859.000
8.16524 949.000
8.18552 1032.000
8.20580 1257.000
8.22608 1467.000
8.24636 1784.000
8.26664 2063.000
8.28692 2611.000
8.30720 3209.000
8.32748 4069.000
8.34776 4593.000
8.36804 5060.000
8.38832 5205.000
8.40860 4798.000
8.42888 4196.000
8.44916 3233.000
8.46944 2544.000
8.48972 1925.000
8.51000 1483.000
8.53028 1401.000
8.55056 1440.000
8.57084 1429.000
8.59112 1623.000
8.61140 1648.000
8.63168 1742.000
8.65197 1736.000
8.67225 1681.000
8.69253 1345.000
8.71281 1114.000
8.73309 897.000
8.75337 735.000
8.77365 653.000
8.79393 596.000
8.81421 576.000
8.83449 585.000
8.85477 429.000
8.87505 523.000
8.89533 554.000
8.91561 487.000
8.93589 487.000
8.95617 467.000
8.97645 424.000
8.99673 503.000
9.01701 466.000
9.03729 438.000
9.05757 495.000
9.07785 431.000
9.09813 470.000
9.11841 460.000
9.13869 470.000
9.15897 437.000
9.17925 505.000
9.19953 469.000
9.21981 469.000
9.24009 489.000
9.26037 518.000
9.28065 457.000
9.30093 486.000
9.32121 501.000
9.34149 564.000
9.36177 559.000
9.38205 613.000
9.40233 696.000
9.42261 778.000
9.44289 888.000
9.46317 927.000
9.48345 944.000
9.50373 1083.000
9.52401 954.000
9.54429 878.000
9.56457 694.000
9.58485 608.000
9.60513 541.000
9.62541 550.000
9.64569 536.000
9.66597 478.000
9.68625 535.000
9.70653 543.000
9.72681 648.000
9.74709 658.000
9.76737 764.000
9.78765 865.000
9.80793 1109.000
9.82821 1144.000
9.84849 1285.000
9.86877 1261.000
9.88905 1237.000
9.90933 1029.000
9.92961 908.000
9.94989 773.000
9.97017 592.000
9.99045 582.000
10.01073 554.000
10.03101 522.000
10.05129 478.000
10.07157 512.000
10.09185 473.000
10.11213 458.000
10.13241 463.000
10.15269 462.000
10.17297 442.000
10.19325 405.000
10.21353 427.000
10.23381 444.000
10.25409 421.000
10.27437 423.000
10.29465 461.000
10.31493 444.000
10.33521 429.000
10.35549 501.000
10.37577 489.000
10.39605 519.000
10.41633 533.000
10.43661 618.000
10.45689 676.000
10.47717 772.000
10.49745 858.000
10.51773 991.000
10.53801 1084.000
10.55830 1164.000
10.57858 1059.000
10.59886 1086.000
10.61914 950.000
10.63942 759.000
10.65970 643.000
10.67998 578.000
10.70026 535.000
10.72054 536.000
10.74082 492.000
10.76110 504.000
10.78138 547.000
10.80166 518.000
10.82194 521.000
10.84222 577.000
10.86250 624.000
10.88278 739.000
10.90306 778.000
10.92334 862.000
10.94362 872.000
10.96390 833.000
10.98418 846.000
11.00446 715.000
11.02474 657.000
11.04502 529.000
11.06530 481.000
11.08558 462.000
11.10586 384.000
11.12614 369.000
11.14642 399.000
11.16670 380.000
11.18698 393.000
11.20726 394.000
11.22754 391.000
11.24782 334.000
11.26810 424.000
11.28838 366.000
11.30866 392.000
11.32894 365.000
11.34922 403.000
11.36950 397.000
11.38978 368.000
11.41006 351.000
11.43034 411.000
11.45062 354.000
11.47090 358.000
11.49118 390.000
11.51146 364.000
11.53174 400.000
11.55202 395.000
11.57230 385.000
11.59258 378.000
11.61286 348.000
11.63314 361.000
11.65342 404.000
11.67370 394.000
11.69398 409.000
11.71426 374.000
11.73454 381.000
11.75482 372.000
11.77510 410.000
11.79538 371.000
11.81566 390.000
11.83594 411.000
11.85622 350.000
11.87650 347.000
11.89678 311.000
11.91706 383.000
11.93734 383.000
11.95762 381.000
11.97790 381.000
11.99818 372.000
12.01846 377.000
12.03874 344.000
12.05902 358.000
12.07930 401.000
12.09958 424.000
12.11986 367.000
12.14014 386.000
12.16042 405.000
12.18070 359.000
12.20098 347.000
12.22126 397.000
12.24154 408.000
12.26182 357.000
12.28210 391.000
12.30238 390.000
12.32266 380.000
12.34294 402.000
12.36322 451.000
12.38350 404.000
12.40378 405.000
12.42406 438.000
12.44434 402.000
12.46463 432.000
12.48491 385.000
12.50519 377.000
12.52547 386.000
12.54575 354.000
12.56603 413.000
12.58631 355.000
12.60659 391.000
12.62687 377.000
12.64715 421.000
12.66743 401.000
12.68771 404.000
12.70799 398.000
12.72827 402.000
12.74855 383.000
12.76883 389.000
12.78911 413.000
12.80939 432.000
12.82967 404.000
12.84995 455.000
12.87023 401.000
12.89051 414.000
12.91079 427.000
12.93107 448.000
12.95135 423.000
12.97163 446.000
12.99191 441.000
13.01219 522.000
13.03247 571.000
13.05275 503.000
13.07303 558.000
13.09331 598.000
13.11359 649.000
13.13387 679.000
13.15415 750.000
13.17443 860.000
13.19471 886.000
13.21499 942.000
13.23527 932.000
13.25555 906.000
13.27583 962.000
13.29611 928.000
13.31639 994.000
13.33667 1069.000
13.35695 1041.000
13.37723 1043.000
13.39751 985.000
13.41779 1001.000
13.43807 985.000
13.45835 1021.000
13.47863 1084.000
13.49891 1188.000
13.51919 1349.000
13.53947 1436.000
13.55975 1536.000
13.58003 1542.000
13.60031 1505.000
13.62059 1405.000
13.64087 1387.000
13.66115 1344.000
13.68143 1369.000
13.70171 1326.000
13.72199 1207.000
13.74227 1210.000
13.76255 1188.000
13.78283 1081.000
13.80311 1017.000
13.82339 875.000
13.84367 807.000
13.86395 753.000
13.88423 580.000
13.90451 578.000
13.92479 591.000
13.94507 500.000
13.96535 522.000
13.98563 460.000
14.00591 482.000
14.02619 412.000
14.04647 472.000
14.06675 447.000
14.08703 425.000
14.10731 441.000
14.12759 453.000
14.14787 461.000
14.16815 478.000
14.18843 475.000
14.20871 470.000
14.22899 486.000
14.24927 432.000
14.26955 406.000
14.28983 469.000
14.31011 512.000
14.33039 428.000
14.35067 491.000
14.37096 514.000
14.39124 498.000
14.41152 500.000
14.43180 520.000
14.45208 524.000
14.47236 569.000
14.49264 628.000
14.51292 637.000
14.53320 754.000
14.55348 871.000
14.57376 986.000
14.59404 1240.000
14.61432 1403.000
14.63460 1689.000
14.65488 1848.000
14.67516 2003.000
14.69544 1917.000
14.71572 1896.000
14.73600 1631.000
14.75628 1329.000
14.77656 1148.000
14.79684 1012.000
14.81712 923.000
14.83740 1005.000
14.85768 1067.000
14.87796 1231.000
14.89824 1349.000
14.91852 1387.000
14.93880 1346.000
14.95908 1321.000
14.97936 1123.000
14.99964 959.000
15.01992 786.000
15.04020 642.000
15.06048 658.000
15.08076 556.000
15.10104 518.000
15.12132 531.000
15.14160 493.000
15.16188 510.000
15.18216 494.000
15.20244 527.000
15.22272 479.000
15.24300 456.000
15.26328 506.000
15.28356 457.000
15.30384 477.000
15.32412 475.000
15.34440 498.000
15.36468 482.000
15.38496 462.000
15.40524 468.000
15.42552 501.000
15.44580 476.000
15.46608 534.000
15.48636 543.000
15.50664 544.000
15.52692 581.000
15.54720 557.000
15.56748 585.000
15.58776 620.000
15.60804 632.000
15.62832 627.000
15.64860 608.000
15.66888 611.000
15.68916 573.000
15.70944 618.000
15.72972 587.000
15.75000 570.000
15.77028 590.000
15.79056 581.000
15.81084 566.000
15.83112 651.000
15.85140 620.000
15.87168 659.000
15.89196 681.000
15.91224 688.000
15.93252 763.000
15.95280 852.000
15.97308 864.000
15.99336 944.000
16.01364 1079.000
16.03392 1275.000
16.05420 1289.000
16.07448 1527.000
16.09476 1384.000
16.11504 1302.000
16.13532 1181.000
16.15560 1176.000
16.17588 1131.000
16.19616 1101.000
16.21644 1259.000
16.23672 1298.000
16.25700 1521.000
16.27729 1662.000
16.29757 2128.000
16.31785 2397.000
16.33813 2788.000
16.35841 3047.000
16.37869 3169.000
16.39897 3148.000
16.41925 3134.000
16.43953 2731.000
16.45981 2431.000
16.48009 2162.000
16.50037 1886.000
16.52065 1791.000
16.54093 1792.000
16.56121 1768.000
16.58149 2013.000
16.60177 2134.000
16.62205 2228.000
16.64233 2322.000
16.66261 2446.000
16.68289 2566.000
16.70317 2356.000
16.72345 2522.000
16.74373 2654.000
16.76401 2649.000
16.78429 2763.000
16.80457 2796.000
16.82485 2751.000
16.84513 2411.000
16.86541 2064.000
16.88569 1909.000
16.90597 1655.000
16.92625 1644.000
16.94653 1569.000
16.96681 1772.000
16.98709 1975.000
17.00737 2228.000
17.02765 2596.000
17.04793 2942.000
17.06821 3351.000
17.08849 3674.000
17.10877 3941.000
17.12905 3976.000
17.14933 3727.000
17.16961 3310.000
17.18989 2974.000
17.21017 2573.000
17.23045 2191.000
17.25073 1970.000
17.27101 1826.000
17.29129 1854.000
17.31157 1882.000
17.33185 1900.000
17.35213 1782.000
17.37241 1696.000
17.39269 1515.000
17.41297 1334.000
17.43325 1202.000
17.45353 1089.000
17.47381 942.000
17.49409 926.000
17.51437 880.000
17.53465 887.000
17.55493 946.000
17.57521 998.000
17.59549 1036.000
17.61577 1147.000
17.63605 1288.000
17.65633 1365.000
17.67661 1621.000
17.69689 1834.000
17.71717 2046.000
17.73745 2276.000
17.75773 2538.000
17.77801 2611.000
17.79829 2567.000
17.81857 2325.000
17.83885 2090.000
17.85913 2027.000
17.87941 1843.000
17.89969 1893.000
17.91997 2069.000
17.94025 2274.000
17.96053 2500.000
17.98081 2836.000
18.00109 3455.000
18.02137 4018.000
18.04165 4578.000
18.06193 5113.000
18.08221 5542.000
18.10249 5791.000
18.12277 5627.000
18.14305 5323.000
18.16333 4779.000
18.18362 4314.000
18.20390 3518.000
18.22418 3079.000
18.24446 2782.000
18.26474 2548.000
18.28502 2557.000
18.30530 2531.000
18.32558 2547.000
18.34586 2600.000
18.36614 2643.000
18.38642 2675.000
18.40670 2469.000
18.42698 2391.000
18.44726 2128.000
18.46754 1886.000
18.48782 1642.000
18.50810 1614.000
18.52838 1662.000
18.54866 1739.000
18.56894 1804.000
18.58922 1941.000
18.60950 2143.000
18.62978 2481.000
18.65006 2807.000
18.67034 2966.000
18.69062 3117.000
18.71090 3103.000
18.73118 2920.000
18.75146 2787.000
18.77174 2637.000
18.79202 2386.000
18.81230 2157.000
18.83258 2103.000
18.85286 2012.000
18.87314 1983.000
18.89342 2007.000
18.91370 1876.000
18.93398 1960.000
18.95426 1846.000
18.97454 1794.000
18.99482 1851.000
19.01510 1787.000
19.03538 1851.000
19.05566 1741.000
19.07594 1673.000
19.09622 1555.000
19.11650 1380.000
19.13678 1308.000
19.15706 1238.000
19.17734 1110.000
19.19762 1089.000
19.21790 1087.000
19.23818 1124.000
19.25846 1161.000
19.27874 1238.000
19.29902 1334.000
19.31930 1431.000
19.33958 1620.000
19.35986 1802.000
19.38014 2036.000
19.40042 2256.000
19.42070 2665.000
19.44098 3046.000
19.46126 3468.000
19.48154 3777.000
19.50182 3919.000
19.52210 4088.000
19.54238 4025.000
19.56266 3646.000
19.58294 3430.000
19.60322 2969.000
19.62350 2627.000
19.64378 2445.000
19.66406 2262.000
19.68434 2039.000
19.70462 2099.000
19.72490 2186.000
19.74518 2249.000
19.76546 2444.000
19.78574 2679.000
19.80602 2823.000
19.82630 3012.000
19.84658 3142.000
19.86686 3324.000
19.88714 3663.000
19.90742 3921.000
19.92770 3987.000
19.94798 4110.000
19.96826 3977.000
19.98854 4017.000
20.00882 3696.000
20.02910 3506.000
20.04938 3260.000
20.06966 3044.000
20.08995 2915.000
20.11023 2834.000
20.13051 2776.000
20.15079 2733.000
20.17107 2856.000
20.19135 2921.000
20.21163 2994.000
20.23191 3020.000
20.25219 3139.000
20.27247 3280.000
20.29275 3506.000
20.31303 3603.000
20.33331 3966.000
20.35359 4008.000
20.37387 3827.000
20.39415 3686.000
20.41443 3065.000
20.43471 2681.000
20.45499 2153.000
20.47527 1868.000
20.49555 1751.000
20.51583 1643.000
20.53611 1768.000
20.55639 1793.000
20.57667 1857.000
20.59695 1893.000
20.61723 1941.000
20.63751 1922.000
20.65779 1812.000
20.67807 1674.000
20.69835 1577.000
20.71863 1428.000
20.73891 1210.000
20.75919 1188.000
20.77947 1044.000
20.79975 1083.000
20.82003 1059.000
20.84031 1068.000
20.86059 1079.000
20.88087 1133.000
20.90115 1053.000
20.92143 1071.000
20.94171 1122.000
20.96199 1109.000
20.98227 1120.000
21.00255 1199.000
21.02283 1230.000
21.04311 1190.000
21.06339 1265.000
21.08367 1418.000
21.10395 1392.000
21.12423 1491.000
21.14451 1663.000
21.16479 1831.000
21.18507 2016.000
21.20535 2179.000
21.22563 2291.000
21.24591 2616.000
21.26619 2962.000
21.28647 3361.000
21.30675 3830.000
21.32703 4301.000
21.34731 5044.000
21.36759 5402.000
21.38787 6242.000
21.40815 6738.000
21.42843 7256.000
21.44871 7778.000
21.46899 8211.000
21.48927 8446.000
21.50955 8819.000
21.52983 9002.000
21.55011 8969.000
21.57039 8941.000
21.59067 8997.000
21.61095 8594.000
21.63123 8555.000
21.65151 7895.000
21.67179 7510.000
21.69207 6781.000
21.71235 6017.000
21.73263 5205.000
21.75291 4268.000
21.77319 3562.000
21.79347 3011.000
21.81375 2441.000
21.83403 2067.000
21.85431 1731.000
21.87459 1509.000
21.89487 1461.000
21.91515 1330.000
21.93543 1271.000
21.95571 1253.000
21.97599 1203.000
21.99628 1271.000
22.01656 1238.000
22.03684 1204.000
22.05712 1246.000
22.07740 1161.000
22.09768 1262.000
22.11796 1302.000
22.13824 1404.000
22.15852 1377.000
22.17880 1397.000
22.19908 1376.000
22.21936 1324.000
22.23964 1235.000
22.25992 1121.000
22.28020 1125.000
22.30048 1060.000
22.32076 1081.000
22.34104 1195.000
22.36132 1080.000
22.38160 1153.000
22.40188 1227.000
22.42216 1315.000
22.44244 1335.000
22.46272 1395.000
22.48300 1419.000
22.50328 1521.000
22.52356 1493.000
22.54384 1548.000
22.56412 1506.000
22.58440 1328.000
22.60468 1261.000
22.62496 1276.000
22.64524 1223.000
22.66552 1303.000
22.68580 1250.000
22.70608 1306.000
22.72636 1228.000
22.74664 1384.000
22.76692 1333.000
22.78720 1411.000
22.80748 1415.000
22.82776 1428.000
22.84804 1413.000
22.86832 1577.000
22.88860 1478.000
22.90888 1407.000
22.92916 1424.000
22.94944 1465.000
22.96972 1471.000
22.99000 1379.000
23.01028 1423.000
23.03056 1375.000
23.05084 1317.000
23.07112 1251.000
23.09140 1212.000
23.11168 1053.000
23.13196 1078.000
23.15224 1058.000
23.17252 996.000
23.19280 996.000
23.21308 1023.000
23.23336 1029.000
23.25364 1111.000
23.27392 1134.000
23.29420 1273.000
23.31448 1348.000
23.33476 1466.000
23.35504 1601.000
23.37532 1810.000
23.39560 1973.000
23.41588 2320.000
23.43616 2511.000
23.45644 2584.000
23.47672 2839.000
23.49700 2926.000
23.51728 2847.000
23.53756 3025.000
23.55784 2842.000
23.57812 2873.000
23.59840 2570.000
23.61868 2459.000
23.63896 2251.000
23.65924 2090.000
23.67952 1965.000
23.69980 1742.000
23.72008 1667.000
23.74036 1507.000
23.76064 1476.000
23.78092 1483.000
23.80120 1410.000
23.82148 1435.000
23.84176 1440.000
23.86204 1372.000
23.88232 1285.000
23.90261 1261.000
23.92289 1211.000
23.94317 1155.000
23.96345 1099.000
23.98373 1088.000
24.00401 1098.000
24.02429 1056.000
24.04457 1072.000
24.06485 1076.000
24.08513 1058.000
24.10541 1099.000
24.12569 1050.000
24.14597 1144.000
24.16625 1120.000
24.18653 1181.000
24.20681 1251.000
24.22709 1257.000
24.24737 1293.000
24.26765 1475.000
24.28793 1468.000
24.30821 1584.000
24.32849 1807.000
24.34877 1956.000
24.36905 2048.000
24.38933 2214.000
24.40961 2185.000
24.42989 2241.000
24.45017 2080.000
24.47045 1860.000
24.49073 1651.000
24.51101 1474.000
24.53129 1289.000
24.55157 1154.000
24.57185 1111.000
24.59213 1098.000
24.61241 1044.000
24.63269 1120.000
24.65297 1156.000
24.67325 1202.000
24.69353 1312.000
24.71381 1348.000
24.73409 1388.000
24.75437 1362.000
24.77465 1338.000
24.79493 1303.000
24.81521 1297.000
24.83549 1239.000
24.85577 1181.000
24.87605 1032.000
24.89633 999.000
24.91661 933.000
24.93689 1001.000
24.95717 926.000
24.97745 958.000
24.99773 1003.000
25.01801 1065.000
25.03829 1131.000
25.05857 1183.000
25.07885 1344.000
25.09913 1385.000
25.11941 1454.000
25.13969 1531.000
25.15997 1647.000
25.18025 1794.000
25.20053 1806.000
25.22081 1796.000
25.24109 1921.000
25.26137 2038.000
25.28165 2017.000
25.30193 1886.000
25.32221 1886.000
25.34249 1777.000
25.36277 1813.000
25.38305 1688.000
25.40333 1690.000
25.42361 1614.000
25.44389 1588.000
25.46417 1546.000
25.48445 1427.000
25.50473 1338.000
25.52501 1404.000
25.54529 1254.000
25.56557 1107.000
25.58585 1085.000
25.60613 953.000
25.62641 913.000
25.64669 888.000
25.66697 940.000
25.68725 888.000
25.70753 853.000
25.72781 885.000
25.74809 932.000
25.76837 941.000
25.78865 1001.000
25.80893 1083.000
25.82922 1023.000
25.84950 1091.000
25.86978 1142.000
25.89006 1170.000
25.91034 1315.000
25.93062 1232.000
25.95090 1441.000
25.97118 1461.000
25.99146 1561.000
26.01174 1728.000
26.03202 1668.000
26.05230 1855.000
26.07258 1870.000
26.09286 1870.000
26.11314 1760.000
26.13342 1809.000
26.15370 1655.000
26.17398 1482.000
26.19426 1523.000
26.21454 1432.000
26.23482 1318.000
26.25510 1226.000
26.27538 1258.000
26.29566 1267.000
26.31594 1177.000
26.33622 1247.000
26.35650 1263.000
26.37678 1309.000
26.39706 1352.000
26.41734 1265.000
26.43762 1363.000
26.45790 1387.000
26.47818 1446.000
26.49846 1512.000
26.51874 1555.000
26.53902 1453.000
26.55930 1474.000
26.57958 1489.000
26.59986 1510.000
26.62014 1407.000
26.64042 1361.000
26.66070 1374.000
26.68098 1309.000
26.70126 1294.000
26.72154 1204.000
26.74182 1185.000
26.76210 1203.000
26.78238 1246.000
26.80266 1233.000
26.82294 1345.000
26.84322 1414.000
26.86350 1420.000
26.88378 1478.000
26.90406 1545.000
26.92434 1656.000
26.94462 1663.000
26.96490 1672.000
26.98518 1651.000
27.00546 1663.000
27.02574 1515.000
27.04602 1559.000
27.06630 1478.000
27.08658 1391.000
27.10686 1402.000
27.12714 1311.000
27.14742 1262.000
27.16770 1236.000
27.18798 1237.000
27.20826 1194.000
27.22854 1067.000
27.24882 1115.000
27.26910 1044.000
27.28938 1103.000
27.30966 1094.000
27.32994 1113.000
27.35022 1082.000
27.37050 1184.000
27.39078 1128.000
27.41106 1197.000
27.43134 1218.000
27.45162 1266.000
27.47190 1309.000
27.49218 1267.000
27.51246 1210.000
27.53274 1179.000
27.55302 1158.000
27.57330 1027.000
27.59358 986.000
27.61386 908.000
27.63414 785.000
27.65442 791.000
27.67470 694.000
27.69498 656.000
27.71526 677.000
27.73555 667.000
27.75583 595.000
27.77611 617.000
27.79639 665.000
27.81667 577.000
27.83695 609.000
27.85723 615.000
27.87751 586.000
27.89779 576.000
27.91807 620.000
27.93835 574.000
27.95863 557.000
27.97891 573.000
27.99919 569.000
28.01947 596.000
28.03975 605.000
28.06003 578.000
28.08031 595.000
28.10059 591.000
28.12087 573.000
28.14115 615.000
28.16143 663.000
28.18171 662.000
28.20199 702.000
28.22227 705.000
28.24255 700.000
28.26283 718.000
28.28311 778.000
28.30339 814.000
28.32367 867.000
28.34395 931.000
28.36423 938.000
28.38451 1036.000
28.40479 1069.000
28.42507 1136.000
28.44535 1150.000
28.46563 1147.000
28.48591 1286.000
28.50619 1306.000
28.52647 1285.000
28.54675 1310.000
28.56703 1296.000
28.58731 1430.000
28.60759 1393.000
28.62787 1253.000
28.64815 1275.000
28.66843 1216.000
28.68871 1088.000
28.70899 1100.000
28.72927 1034.000
28.74955 973.000
28.76983 958.000
28.79011 941.000
28.81039 924.000
28.83067 941.000
28.85095 863.000
28.87123 882.000
28.89151 895.000
28.91179 897.000
28.93207 925.000
28.95235 879.000
28.97263 901.000
28.99291 954.000
29.01319 1005.000
29.03347 1046.000
29.05375 1039.000
29.07403 1056.000
29.09431 1035.000
29.11459 1031.000
29.13487 1027.000
29.15515 941.000
29.17543 998.000
29.19571 939.000
29.21599 909.000
29.23627 863.000
29.25655 864.000
29.27683 894.000
29.29711 966.000
29.31739 905.000
29.33767 946.000
29.35795 882.000
29.37823 956.000
29.39851 900.000
29.41879 869.000
29.43907 897.000
29.45935 859.000
29.47963 908.000
29.49991 857.000
29.52019 833.000
29.54047 829.000
29.56075 858.000
29.58103 863.000
29.60131 921.000
29.62159 970.000
29.64188 973.000
29.66216 1029.000
29.68244 1042.000
29.70272 1073.000
29.72300 1046.000
29.74328 1092.000
29.76356 1198.000
29.78384 1211.000
29.80412 1249.000
29.82440 1213.000
29.84468 1174.000
29.86496 1204.000
29.88524 1193.000
29.90552 1196.000
29.92580 1192.000
29.94608 1143.000
29.96636 1119.000
29.98664 1125.000
30.00692 1090.000
30.02720 1005.000
30.04748 1117.000
30.06776 1047.000
30.08804 1035.000
30.10832 975.000
30.12860 976.000
30.14888 896.000
30.16916 911.000
30.18944 919.000
30.20972 884.000
30.23000 843.000
30.25028 821.000
30.27056 789.000
30.29084 764.000
30.31112 839.000
30.33140 842.000
30.35168 843.000
30.37196 866.000
30.39224 961.000
30.41252 907.000
30.43280 913.000
30.45308 828.000
30.47336 777.000
30.49364 783.000
30.51392 750.000
30.53420 727.000
30.55448 694.000
30.57476 655.000
30.59504 620.000
30.61532 618.000
30.63560 552.000
30.65588 602.000
30.67616 542.000
30.69644 563.000
30.71672 583.000
30.73700 559.000
30.75728 584.000
30.77756 578.000
30.79784 615.000
30.81812 557.000
30.83840 608.000
30.85868 588.000
30.87896 619.000
30.89924 561.000
30.91952 661.000
30.93980 679.000
30.96008 659.000
30.98036 671.000
31.00064 666.000
31.02092 686.000
31.04120 698.000
31.06148 754.000
31.08176 781.000
31.10204 799.000
31.12232 844.000
31.14260 834.000
31.16288 798.000
31.18316 785.000
31.20344 737.000
31.22372 797.000
31.24400 769.000
31.26428 762.000
31.28456 705.000
31.30484 707.000
31.32512 765.000
31.34540 695.000
31.36568 701.000
31.38596 654.000
31.40624 665.000
31.42652 632.000
31.44680 682.000
31.46708 667.000
31.48736 707.000
31.50764 682.000
31.52792 714.000
31.54821 727.000
31.56849 707.000
31.58877 751.000
31.60905 775.000
31.62933 831.000
31.64961 794.000
31.66989 800.000
31.69017 802.000
31.71045 889.000
31.73073 829.000
31.75101 808.000
31.77129 859.000
31.79157 774.000
31.81185 790.000
31.83213 773.000
31.85241 780.000
31.87269 778.000
31.89297 774.000
31.91325 761.000
31.93353 775.000
31.95381 788.000
31.97409 815.000
31.99437 779.000
32.01465 763.000
32.03493 734.000
32.05521 797.000
32.07549 777.000
32.09577 750.000
32.11605 715.000
32.13633 716.000
32.15661 687.000
32.17689 696.000
32.19717 682.000
32.21745 662.000
32.23773 690.000
32.25801 667.000
32.27829 611.000
32.29857 626.000
32.31885 625.000
32.33913 611.000
32.35941 613.000
32.37969 602.000
32.39997 603.000
32.42025 610.000
32.44053 590.000
32.46081 602.000
32.48109 569.000
32.50137 599.000
32.52165 532.000
32.54193 511.000
32.56221 523.000
32.58249 501.000
32.60277 520.000
32.62305 557.000
32.64333 546.000
32.66361 587.000
32.68389 564.000
32.70417 619.000
32.72445 595.000
32.74473 628.000
32.76501 630.000
32.78529 577.000
32.80557 585.000
32.82585 592.000
32.84613 611.000
32.86641 600.000
32.88669 598.000
32.90697 685.000
32.92725 655.000
32.94753 608.000
32.96781 647.000
32.98809 638.000
33.00837 709.000
33.02865 673.000
33.04893 717.000
33.06921 682.000
33.08949 701.000
33.10977 662.000
33.13005 702.000
33.15033 721.000
33.17061 709.000
33.19089 810.000
33.21117 725.000
33.23145 694.000
33.25173 703.000
33.27201 719.000
33.29229 773.000
33.31257 777.000
33.33285 760.000
33.35313 783.000
33.37341 814.000
33.39369 714.000
33.41397 686.000
33.43425 725.000
33.45454 646.000
33.47482 685.000
33.49510 674.000
33.51538 654.000
33.53566 628.000
33.55594 642.000
33.57622 605.000
33.59650 628.000
33.61678 585.000
33.63706 586.000
33.65734 570.000
33.67762 655.000
33.69790 605.000
33.71818 612.000
33.73846 607.000
33.75874 557.000
33.77902 555.000
33.79930 579.000
33.81958 566.000
33.83986 606.000
33.86014 568.000
33.88042 569.000
33.90070 561.000
33.92098 581.000
33.94126 566.000
33.96154 600.000
33.98182 627.000
34.00210 641.000
34.02238 615.000
34.04266 638.000
34.06294 665.000
34.08322 607.000
34.10350 656.000
34.12378 596.000
34.14406 678.000
34.16434 701.000
34.18462 666.000
34.20490 686.000
34.22518 686.000
34.24546 713.000
34.26574 687.000
34.28602 671.000
34.30630 702.000
34.32658 744.000
34.34686 732.000
34.36714 671.000
34.38742 687.000
34.40770 781.000
34.42798 801.000
34.44826 839.000
34.46854 861.000
34.48882 952.000
34.50910 985.000
34.52938 1013.000
34.54966 1085.000
34.56994 1074.000
34.59022 1113.000
34.61050 1073.000
34.63078 1068.000
34.65106 1022.000
34.67134 993.000
34.69162 938.000
34.71190 901.000
34.73218 865.000
34.75246 833.000
34.77274 821.000
34.79302 805.000
34.81330 833.000
34.83358 840.000
34.85386 803.000
34.87414 873.000
34.89442 887.000
34.91470 885.000
34.93498 901.000
34.95526 919.000
34.97554 903.000
34.99582 886.000
35.01610 831.000
35.03638 882.000
35.05666 900.000
35.07694 851.000
35.09722 807.000
35.11750 735.000
35.13778 775.000
35.15806 757.000
35.17834 767.000
35.19862 686.000
35.21890 693.000
35.23918 698.000
35.25946 678.000
35.27974 726.000
35.30002 730.000
35.32030 664.000
35.34058 663.000
35.36087 673.000
35.38115 627.000
35.40143 623.000
35.42171 653.000
35.44199 628.000
35.46227 620.000
35.48255 557.000
35.50283 639.000
35.52311 600.000
35.54339 629.000
35.56367 651.000
35.58395 605.000
35.60423 609.000
35.62451 591.000
35.64479 598.000
35.66507 566.000
35.68535 545.000
35.70563 584.000
35.72591 515.000
35.74619 564.000
35.76647 529.000
35.78675 550.000
35.80703 518.000
35.82731 547.000
35.84759 560.000
35.86787 530.000
35.88815 516.000
35.90843 524.000
35.92871 513.000
35.94899 534.000
35.96927 548.000
35.98955 549.000
36.00983 619.000
36.03011 582.000
36.05039 595.000
36.07067 619.000
36.09095 632.000
36.11123 625.000
36.13151 665.000
36.15179 646.000
36.17207 671.000
36.19235 763.000
36.21263 696.000
36.23291 738.000
36.25319 698.000
36.27347 702.000
36.29375 775.000
36.31403 704.000
36.33431 705.000
36.35459 690.000
36.37487 683.000
36.39515 693.000
36.41543 721.000
36.43571 773.000
36.45599 707.000
36.47627 706.000
36.49655 704.000
36.51683 749.000
36.53711 727.000
36.55739 707.000
36.57767 738.000
36.59795 763.000
36.61823 731.000
36.63851 772.000
36.65879 791.000
36.67907 825.000
36.69935 797.000
36.71963 847.000
36.73991 827.000
36.76019 861.000
36.78047 865.000
36.80075 790.000
36.82103 852.000
36.84131 804.000
36.86159 767.000
36.88187 794.000
36.90215 728.000
36.92243 747.000
36.94271 739.000
36.96299 716.000
36.98327 721.000
37.00355 707.000
37.02383 688.000
37.04411 668.000
37.06439 673.000
37.08467 708.000
37.10495 704.000
37.12523 669.000
37.14551 697.000
37.16579 694.000
37.18607 710.000
37.20635 651.000
37.22663 675.000
37.24691 660.000
37.26720 654.000
37.28748 663.000
37.30776 625.000
37.32804 647.000
37.34832 609.000
37.36860 625.000
37.38888 621.000
37.40916 600.000
37.42944 587.000
37.44972 549.000
37.47000 588.000
37.49028 604.000
37.51056 559.000
37.53084 586.000
37.55112 597.000
37.57140 550.000
37.59168 544.000
37.61196 556.000
37.63224 599.000
37.65252 602.000
37.67280 588.000
37.69308 606.000
37.71336 595.000
37.73364 631.000
37.75392 592.000
37.77420 617.000
37.79448 677.000
37.81476 685.000
37.83504 661.000
37.85532 649.000
37.87560 719.000
37.89588 696.000
37.91616 679.000
37.93644 715.000
37.95672 709.000
37.97700 723.000
37.99728 730.000
38.01756 730.000
38.03784 731.000
38.05812 731.000
38.07840 709.000
38.09868 663.000
38.11896 643.000
38.13924 660.000
38.15952 686.000
38.17980 631.000
38.20008 583.000
38.22036 575.000
38.24064 592.000
38.26092 653.000
38.28120 581.000
38.30148 576.000
38.32176 610.000
38.34204 593.000
38.36232 624.000
38.38260 627.000
38.40288 669.000
38.42316 659.000
38.44344 613.000
38.46372 656.000
38.48400 641.000
38.50428 662.000
38.52456 560.000
38.54484 627.000
38.56512 577.000
38.58540 583.000
38.60568 565.000
38.62596 552.000
38.64624 547.000
38.66652 523.000
38.68680 526.000
38.70708 518.000
38.72736 549.000
38.74764 543.000
38.76792 575.000
38.78820 552.000
38.80848 544.000
38.82876 522.000
38.84904 514.000
38.86932 551.000
38.88960 557.000
38.90988 534.000
38.93016 556.000
38.95044 545.000
38.97072 572.000
38.99100 575.000
39.01128 554.000
39.03156 589.000
39.05184 629.000
39.07212 545.000
39.09240 590.000
39.11268 605.000
39.13296 620.000
39.15324 606.000
39.17353 577.000
39.19381 544.000
39.21409 572.000
39.23437 543.000
39.25465 567.000
39.27493 561.000
39.29521 655.000
39.31549 566.000
39.33577 614.000
39.35605 623.000
39.37633 580.000
39.39661 587.000
39.41689 580.000
39.43717 615.000
39.45745 634.000
39.47773 680.000
39.49801 592.000
39.51829 674.000
39.53857 643.000
39.55885 664.000
39.57913 692.000
39.59941 728.000
39.61969 674.000
39.63997 709.000
39.66025 660.000
39.68053 670.000
39.70081 668.000
39.72109 695.000
39.74137 658.000
39.76165 615.000
39.78193 639.000
39.80221 664.000
39.82249 576.000
39.84277 620.000
39.86305 636.000
39.88333 620.000
39.90361 639.000
39.92389 677.000
39.94417 621.000
39.96445 619.000
39.98473 693.000
40.00501 614.000
40.02529 667.000
40.04557 701.000
40.06585 675.000
40.08613 724.000
40.10641 719.000
40.12669 744.000
40.14697 782.000
40.16725 806.000
40.18753 768.000
40.20781 809.000
40.22809 777.000
40.24837 785.000
40.26865 865.000
40.28893 797.000
40.30921 809.000
40.32949 773.000
40.34977 776.000
40.37005 828.000
40.39033 761.000
40.41061 798.000
40.43089 753.000
40.45117 774.000
40.47145 799.000
40.49173 799.000
40.51201 767.000
40.53229 755.000
40.55257 723.000
40.57285 735.000
40.59313 689.000
40.61341 664.000
40.63369 638.000
40.65397 649.000
40.67425 649.000
40.69453 579.000
40.71481 582.000
40.73509 599.000
40.75537 547.000
40.77565 577.000
40.79593 598.000
40.81621 563.000
40.83649 526.000
40.85677 572.000
40.87705 510.000
40.89733 560.000
40.91761 522.000
40.93789 541.000
40.95817 559.000
40.97845 559.000
40.99873 590.000
41.01901 535.000
41.03929 591.000
41.05957 656.000
41.07986 554.000
41.10014 574.000
41.12042 610.000
41.14070 578.000
41.16098 567.000
41.18126 563.000
41.20154 606.000
41.22182 602.000
41.24210 639.000
41.26238 621.000
41.28266 656.000
41.30294 657.000
41.32322 645.000
41.34350 683.000
41.36378 670.000
41.38406 667.000
41.40434 650.000
41.42462 637.000
41.44490 639.000
41.46518 696.000
41.48546 689.000
41.50574 660.000
41.52602 645.000
41.54630 663.000
41.56658 673.000
41.58686 658.000
41.60714 694.000
41.62742 674.000
41.64770 753.000
41.66798 679.000
41.68826 707.000
41.70854 735.000
41.72882 734.000
41.74910 705.000
41.76938 730.000
41.78966 718.000
41.80994 711.000
41.83022 709.000
41.85050 687.000
41.87078 662.000
41.89106 613.000
41.91134 574.000
41.93162 582.000
41.95190 567.000
41.97218 544.000
41.99246 555.000
42.01274 539.000
42.03302 493.000
42.05330 536.000
42.07358 479.000
42.09386 461.000
42.11414 506.000
42.13442 508.000
42.15470 490.000
42.17498 499.000
42.19526 536.000
42.21554 515.000
42.23582 474.000
42.25610 574.000
42.27638 528.000
42.29666 483.000
42.31694 497.000
42.33722 500.000
42.35750 475.000
42.37778 502.000
42.39806 482.000
42.41834 490.000
42.43862 512.000
42.45890 474.000
42.47918 500.000
42.49946 475.000
42.51974 493.000
42.54002 498.000
42.56030 505.000
42.58058 484.000
42.60086 517.000
42.62114 493.000
42.64142 494.000
42.66170 514.000
42.68198 500.000
42.70226 456.000
42.72254 516.000
42.74282 498.000
42.76310 472.000
42.78338 479.000
42.80366 464.000
42.82394 477.000
42.84422 427.000
42.86450 482.000
42.88478 498.000
42.90506 526.000
42.92534 485.000
42.94562 526.000
42.96590 521.000
42.98619 500.000
43.00647 546.000
43.02675 508.000
43.04703 537.000
43.06731 534.000
43.08759 624.000
43.10787 578.000
43.12815 597.000
43.14843 595.000
43.16871 577.000
43.18899 665.000
43.20927 608.000
43.22955 675.000
43.24983 611.000
43.27011 655.000
43.29039 623.000
43.31067 662.000
43.33095 663.000
43.35123 667.000
43.37151 599.000
43.39179 645.000
43.41207 654.000
43.43235 642.000
43.45263 645.000
43.47291 630.000
43.49319 635.000
43.51347 663.000
43.53375 640.000
43.55403 677.000
43.57431 672.000
43.59459 621.000
43.61487 651.000
43.63515 665.000
43.65543 659.000
43.67571 633.000
43.69599 612.000
43.71627 644.000
43.73655 618.000
43.75683 640.000
43.77711 702.000
43.79739 721.000
43.81767 692.000
43.83795 644.000
43.85823 698.000
43.87851 705.000
43.89879 665.000
43.91907 683.000
43.93935 679.000
43.95963 695.000
43.97991 668.000
44.00019 703.000
44.02047 694.000
44.04075 672.000
44.06103 649.000
44.08131 595.000
44.10159 668.000
44.12187 659.000
44.14215 622.000
44.16243 645.000
44.18271 627.000
44.20299 594.000
44.22327 633.000
44.24355 616.000
44.26383 620.000
44.28411 638.000
44.30439 602.000
44.32467 569.000
44.34495 585.000
44.36523 590.000
44.38551 584.000
44.40579 606.000
44.42607 588.000
44.44635 577.000
44.46663 574.000
44.48691 561.000
44.50719 583.000
44.52747 544.000
44.54775 569.000
44.56803 530.000
44.58831 566.000
44.60859 535.000
44.62887 570.000
44.64915 553.000
44.66943 565.000
44.68971 557.000
44.70999 549.000
44.73027 586.000
44.75055 549.000
44.77083 565.000
44.79111 566.000
44.81139 543.000
44.83167 608.000
44.85195 541.000
44.87223 556.000
44.89251 606.000
44.91280 588.000
44.93308 544.000
44.95336 538.000
44.97364 576.000
44.99392 591.000
45.01420 550.000
45.03448 537.000
45.05476 562.000
45.07504 613.000
45.09532 561.000
45.11560 555.000
45.13588 527.000
45.15616 529.000
45.17644 508.000
45.19672 505.000
45.21700 594.000
45.23728 564.000
45.25756 527.000
45.27784 549.000
45.29812 532.000
45.31840 532.000
45.33868 506.000
45.35896 502.000
45.37924 549.000
45.39952 550.000
45.41980 511.000
45.44008 544.000
45.46036 543.000
45.48064 540.000
45.50092 556.000
45.52120 513.000
45.54148 513.000
45.56176 541.000
45.58204 529.000
45.60232 561.000
45.62260 596.000
45.64288 541.000
45.66316 560.000
45.68344 561.000
45.70372 533.000
45.72400 540.000
45.74428 541.000
45.76456 522.000
45.78484 574.000
45.80512 551.000
45.82540 559.000
45.84568 548.000
45.86596 569.000
45.88624 537.000
45.90652 534.000
45.92680 543.000
45.94708 566.000
45.96736 530.000
45.98764 540.000
46.00792 475.000
46.02820 536.000
46.04848 527.000
46.06876 498.000
46.08904 519.000
46.10932 548.000
46.12960 565.000
46.14988 503.000
46.17016 571.000
46.19044 503.000
46.21072 505.000
46.23100 563.000
46.25128 514.000
46.27156 569.000
46.29184 550.000
46.31212 533.000
46.33240 553.000
46.35268 556.000
46.37296 586.000
46.39324 563.000
46.41352 599.000
46.43380 598.000
46.45408 609.000
46.47436 625.000
46.49464 527.000
46.51492 584.000
46.53520 549.000
46.55548 565.000
46.57576 591.000
46.59604 637.000
46.61632 528.000
46.63660 577.000
46.65688 532.000
46.67716 574.000
46.69744 587.000
46.71772 585.000
46.73800 562.000
46.75828 556.000
46.77856 544.000
46.79884 536.000
46.81913 528.000
46.83941 548.000
46.85969 535.000
46.87997 497.000
46.90025 524.000
46.92053 535.000
46.94081 525.000
46.96109 511.000
46.98137 509.000
47.00165 500.000
47.02193 498.000
47.04221 499.000
47.06249 520.000
47.08277 569.000
47.10305 547.000
47.12333 520.000
47.14361 528.000
47.16389 556.000
47.18417 582.000
47.20445 563.000
47.22473 595.000
47.24501 576.000
47.26529 558.000
47.28557 580.000
47.30585 548.000
47.32613 633.000
47.34641 579.000
47.36669 603.000
47.38697 595.000
47.40725 573.000
47.42753 613.000
47.44781 609.000
47.46809 632.000
47.48837 564.000
47.50865 541.000
47.52893 571.000
47.54921 612.000
47.56949 599.000
47.58977 574.000
47.61005 579.000
47.63033 547.000
47.65061 583.000
47.67089 559.000
47.69117 570.000
47.71145 560.000
47.73173 530.000
47.75201 548.000
47.77229 545.000
47.79257 511.000
47.81285 501.000
47.83313 527.000
47.85341 560.000
47.87369 522.000
47.89397 566.000
47.91425 546.000
47.93453 523.000
47.95481 540.000
47.97509 507.000
47.99537 524.000
48.01565 514.000
48.03593 524.000
48.05621 554.000
48.07649 540.000
48.09677 489.000
48.11705 525.000
48.13733 523.000
48.15761 517.000
48.17789 549.000
48.19817 501.000
48.21845 478.000
48.23873 458.000
48.25901 457.000
48.27929 537.000
48.29957 491.000
48.31985 508.000
48.34013 453.000
48.36041 460.000
48.38069 485.000
48.40097 473.000
48.42125 512.000
48.44153 502.000
48.46181 460.000
48.48209 501.000
48.50237 453.000
48.52265 460.000
48.54293 528.000
48.56321 483.000
48.58349 468.000
48.60377 448.000
48.62405 449.000
48.64433 487.000
48.66461 473.000
48.68489 446.000
48.70517 418.000
48.72546 477.000
48.74574 458.000
48.76602 479.000
48.78630 489.000
48.80658 460.000
48.82686 459.000
48.84714 473.000
48.86742 440.000
48.88770 413.000
48.90798 472.000
48.92826 470.000
48.94854 422.000
48.96882 421.000
48.98910 430.000
49.00938 459.000
49.02966 438.000
49.04994 469.000
49.07022 501.000
49.09050 502.000
49.11078 460.000
49.13106 474.000
49.15134 426.000
49.17162 429.000
49.19190 509.000
49.21218 501.000
49.23246 476.000
49.25274 479.000
49.27302 460.000
49.29330 475.000
49.31358 468.000
49.33386 488.000
49.35414 496.000
49.37442 428.000
49.39470 456.000
49.41498 438.000
49.43526 489.000
49.45554 470.000
49.47582 464.000
49.49610 476.000
49.51638 465.000
49.53666 471.000
49.55694 483.000
49.57722 498.000
49.59750 509.000
49.61778 466.000
49.63806 466.000
49.65834 492.000
49.67862 441.000
49.69890 464.000
49.71918 461.000
49.73946 489.000
49.75974 455.000
49.78002 471.000
49.80030 508.000
49.82058 451.000
49.84086 437.000
49.86114 472.000
49.88142 453.000
49.90170 479.000
49.92198 471.000
49.94226 456.000
49.96254 420.000
49.98282 486.000
50.00310 454.000
