5.00155 818.000
5.02183 843.000
5.04211 831.000
5.06239 713.000
5.08267 803.000
5.10295 755.000
5.12323 759.000
5.14351 695.000
5.16379 778.000
5.18407 739.000
5.20435 693.000
5.22463 712.000
5.24491 762.000
5.26519 744.000
5.28547 674.000
5.30575 682.000
5.32603 687.000
5.34631 642.000
5.36659 722.000
5.38687 670.000
5.40715 692.000
5.42743 663.000
5.44771 672.000
5.46799 636.000
5.48827 657.000
5.50855 637.000
5.52883 605.000
5.54911 608.000
5.56939 565.000
5.58967 558.000
5.60995 643.000
5.63023 603.000
5.65051 545.000
5.67079 542.000
5.69107 562.000
5.71135 593.000
5.73163 564.000
5.75191 556.000
5.77219 521.000
5.79247 592.000
5.81275 504.000
5.83303 539.000
5.85331 584.000
5.87359 560.000
5.89387 557.000
5.91415 536.000
5.93443 530.000
5.95471 516.000
5.97499 475.000
5.99527 489.000
6.01555 522.000
6.03583 519.000
6.05611 482.000
6.07639 463.000
6.09667 523.000
6.11695 516.000
6.13723 494.000
6.15751 481.000
6.17779 526.000
6.19807 466.000
6.21835 498.000
6.23863 466.000
6.25891 545.000
6.27919 557.000
6.29947 565.000
6.31975 608.000
6.34003 661.000
6.36031 711.000
6.38059 796.000
6.40087 908.000
6.42115 944.000
6.44143 873.000
6.46171 812.000
6.48199 710.000
6.50227 621.000
6.52255 543.000
6.54283 522.000
6.56311 510.000
6.58339 488.000
6.60367 446.000
6.62395 490.000
6.64423 552.000
6.66451 593.000
6.68479 603.000
6.70507 693.000
6.72536 770.000
6.74564 806.000
6.76592 902.000
6.78620 890.000
6.80648 997.000
6.82676 957.000
6.84704 971.000
6.86732 852.000
6.88760 785.000
6.90788 673.000
6.92816 536.000
6.94844 551.000
6.96872 407.000
6.98900 419.000
7.00928 409.000
7.02956 408.000
7.04984 385.000
7.07012 395.000
7.09040 376.000
7.11068 377.000
7.13096 384.000
7.15124 327.000
7.17152 409.000
7.19180 375.000
7.21208 373.000
7.23236 367.000
7.25264 350.000
7.27292 330.000
7.29320 379.000
7.31348 356.000
7.33376 384.000
7.35404 363.000
7.37432 329.000
7.39460 392.000
7.41488 320.000
7.43516 352.000
7.45544 358.000
7.47572 362.000
7.49600 314.000
7.51628 330.000
7.53656 365.000
7.55684 391.000
7.57712 329.000
7.59740 362.000
7.61768 350.000
7.63796 376.000
7.65824 341.000
7.67852 375.000
7.69880 378.000
7.71908 419.000
7.73936 412.000
7.75964 384.000
7.77992 357.000
7.80020 354.000
7.82048 344.000
7.84076 370.000
7.86104 363.000
7.88132 381.000
7.90160 342.000
7.92188 357.000
7.94216 370.000
7.96244 324.000
7.98272 364.000
8.00300 366.000
8.02328 340.000
8.04356 315.000
8.06384 433.000
8.08412 362.000
8.10440 350.000
8.12468 411.000
8.14496 412.000
8.16524 455.000
8.18552 399.000
8.20580 461.000
8.22608 513.000
8.24636 518.000
8.26664 634.000
8.28692 700.000
8.30720 808.000
8.32748 933.000
8.34776 1088.000
8.36804 1149.000
8.38832 1203.000
8.40860 1291.000
8.42888 1182.000
8.44916 1265.000
8.46944 1205.000
8.48972 1386.000
8.51000 1655.000
8.53028 2185.000
8.55056 2765.000
8.57084 3622.000
8.59112 4456.000
8.61140 5336.000
8.63168 5998.000
8.65197 5930.000
8.67225 5230.000
8.69253 3872.000
8.71281 2727.000
8.73309 1806.000
8.75337 1159.000
8.77365 949.000
8.79393 687.000
8.81421 643.000
8.83449 566.000
8.85477 541.000
8.87505 476.000
8.89533 459.000
8.91561 455.000
8.93589 455.000
8.95617 449.000
8.97645 416.000
8.99673 415.000
9.01701 418.000
9.03729 399.000
9.05757 418.000
9.07785 412.000
9.09813 427.000
9.11841 420.000
9.13869 441.000
9.15897 407.000
9.17925 427.000
9.19953 457.000
9.21981 465.000
9.24009 447.000
9.26037 542.000
9.28065 532.000
9.30093 583.000
9.32121 633.000
9.34149 749.000
9.36177 910.000
9.38205 1239.000
9.40233 1481.000
9.42261 1911.000
9.44289 2407.000
9.46317 2875.000
9.48345 3212.000
9.50373 3169.000
9.52401 2704.000
9.54429 2139.000
9.56457 1484.000
9.58485 1094.000
9.60513 785.000
9.62541 759.000
9.64569 670.000
9.66597 775.000
9.68625 830.000
9.70653 986.000
9.72681 1173.000
9.74709 1503.000
9.76737 1835.000
9.78765 2464.000
9.80793 3098.000
9.82821 3829.000
9.84849 4097.000
9.86877 4213.000
9.88905 3640.000
9.90933 2918.000
9.92961 2083.000
9.94989 1360.000
9.97017 1024.000
9.99045 795.000
10.01073 640.000
10.03101 611.000
10.05129 553.000
10.07157 569.000
10.09185 554.000
10.11213 465.000
10.13241 453.000
10.15269 459.000
10.17297 432.000
10.19325 401.000
10.21353 404.000
10.23381 425.000
10.25409 411.000
10.27437 419.000
10.29465 415.000
10.31493 356.000
10.33521 440.000
10.35549 422.000
10.37577 452.000
10.39605 456.000
10.41633 527.000
10.43661 523.000
10.45689 507.000
10.47717 495.000
10.49745 487.000
10.51773 518.000
10.53801 487.000
10.55830 458.000
10.57858 500.000
10.59886 512.000
10.61914 482.000
10.63942 490.000
10.65970 432.000
10.67998 437.000
10.70026 403.000
10.72054 466.000
10.74082 444.000
10.76110 518.000
10.78138 554.000
10.80166 692.000
10.82194 844.000
10.84222 1022.000
10.86250 1355.000
10.88278 1716.000
10.90306 1958.000
10.92334 2423.000
10.94362 2442.000
10.96390 2450.000
10.98418 2073.000
11.00446 1569.000
11.02474 1134.000
11.04502 872.000
11.06530 598.000
11.08558 463.000
11.10586 450.000
11.12614 363.000
11.14642 370.000
11.16670 396.000
11.18698 348.000
11.20726 367.000
11.22754 347.000
11.24782 381.000
11.26810 341.000
11.28838 350.000
11.30866 369.000
11.32894 334.000
11.34922 324.000
11.36950 339.000
11.38978 331.000
11.41006 324.000
11.43034 343.000
11.45062 349.000
11.47090 305.000
11.49118 340.000
11.51146 348.000
11.53174 324.000
11.55202 355.000
11.57230 322.000
11.59258 352.000
11.61286 304.000
11.63314 299.000
11.65342 343.000
11.67370 305.000
11.69398 288.000
11.71426 351.000
11.73454 313.000
11.75482 342.000
11.77510 315.000
11.79538 328.000
11.81566 334.000
11.83594 315.000
11.85622 356.000
11.87650 300.000
11.89678 326.000
11.91706 325.000
11.93734 334.000
11.95762 326.000
11.97790 320.000
11.99818 309.000
12.01846 336.000
12.03874 320.000
12.05902 339.000
12.07930 339.000
12.09958 349.000
12.11986 281.000
12.14014 329.000
12.16042 284.000
12.18070 287.000
12.20098 320.000
12.22126 322.000
12.24154 322.000
12.26182 313.000
12.28210 322.000
12.30238 380.000
12.32266 346.000
12.34294 386.000
12.36322 359.000
12.38350 425.000
12.40378 371.000
12.42406 402.000
12.44434 385.000
12.46463 346.000
12.48491 304.000
12.50519 341.000
12.52547 317.000
12.54575 315.000
12.56603 336.000
12.58631 332.000
12.60659 318.000
12.62687 314.000
12.64715 331.000
12.66743 280.000
12.68771 330.000
12.70799 341.000
12.72827 327.000
12.74855 348.000
12.76883 329.000
12.78911 295.000
12.80939 322.000
12.82967 364.000
12.84995 355.000
12.87023 340.000
12.89051 383.000
12.91079 445.000
12.93107 481.000
12.95135 447.000
12.97163 449.000
12.99191 543.000
13.01219 550.000
13.03247 495.000
13.05275 438.000
13.07303 434.000
13.09331 456.000
13.11359 473.000
13.13387 513.000
13.15415 574.000
13.17443 680.000
13.19471 680.000
13.21499 861.000
13.23527 922.000
13.25555 991.000
13.27583 1004.000
13.29611 869.000
13.31639 774.000
13.33667 656.000
13.35695 598.000
13.37723 536.000
13.39751 548.000
13.41779 513.000
13.43807 552.000
13.45835 516.000
13.47863 617.000
13.49891 636.000
13.51919 704.000
13.53947 820.000
13.55975 944.000
13.58003 1099.000
13.60031 1268.000
13.62059 1515.000
13.64087 1922.000
13.66115 2168.000
13.68143 2562.000
13.70171 2572.000
13.72199 2598.000
13.74227 2549.000
13.76255 2471.000
13.78283 2473.000
13.80311 2350.000
13.82339 2134.000
13.84367 1814.000
13.86395 1322.000
13.88423 977.000
13.90451 728.000
13.92479 593.000
13.94507 480.000
13.96535 469.000
13.98563 478.000
14.00591 399.000
14.02619 361.000
14.04647 416.000
14.06675 380.000
14.08703 357.000
14.10731 352.000
14.12759 371.000
14.14787 396.000
14.16815 348.000
14.18843 348.000
14.20871 361.000
14.22899 336.000
14.24927 353.000
14.26955 377.000
14.28983 318.000
14.31011 351.000
14.33039 374.000
14.35067 354.000
14.37096 376.000
14.39124 360.000
14.41152 341.000
14.43180 315.000
14.45208 374.000
14.47236 358.000
14.49264 364.000
14.51292 370.000
14.53320 427.000
14.55348 430.000
14.57376 383.000
14.59404 464.000
14.61432 491.000
14.63460 485.000
14.65488 511.000
14.67516 628.000
14.69544 613.000
14.71572 572.000
14.73600 572.000
14.75628 545.000
14.77656 581.000
14.79684 608.000
14.81712 731.000
14.83740 738.000
14.85768 854.000
14.87796 950.000
14.89824 884.000
14.91852 889.000
14.93880 698.000
14.95908 647.000
14.97936 553.000
14.99964 484.000
15.01992 443.000
15.04020 413.000
15.06048 355.000
15.08076 378.000
15.10104 402.000
15.12132 393.000
15.14160 377.000
15.16188 374.000
15.18216 338.000
15.20244 389.000
15.22272 378.000
15.24300 353.000
15.26328 400.000
15.28356 394.000
15.30384 400.000
15.32412 354.000
15.34440 409.000
15.36468 360.000
15.38496 421.000
15.40524 460.000
15.42552 440.000
15.44580 413.000
15.46608 464.000
15.48636 552.000
15.50664 589.000
15.52692 695.000
15.54720 725.000
15.56748 798.000
15.58776 915.000
15.60804 954.000
15.62832 1010.000
15.64860 960.000
15.66888 932.000
15.68916 864.000
15.70944 766.000
15.72972 730.000
15.75000 683.000
15.77028 702.000
15.79056 610.000
15.81084 641.000
15.83112 664.000
15.85140 659.000
15.87168 712.000
15.89196 872.000
15.91224 925.000
15.93252 1219.000
15.95280 1430.000
15.97308 1747.000
15.99336 2230.000
16.01364 2725.000
16.03392 3250.000
16.05420 3887.000
16.07448 3933.000
16.09476 3779.000
16.11504 3331.000
16.13532 2607.000
16.15560 1835.000
16.17588 1388.000
16.19616 953.000
16.21644 858.000
16.23672 819.000
16.25700 882.000
16.27729 894.000
16.29757 1021.000
16.31785 1109.000
16.33813 1247.000
16.35841 1394.000
16.37869 1552.000
16.39897 1671.000
16.41925 1730.000
16.43953 1682.000
16.45981 1491.000
16.48009 1459.000
16.50037 1290.000
16.52065 1349.000
16.54093 1374.000
16.56121 1609.000
16.58149 1875.000
16.60177 2269.000
16.62205 2824.000
16.64233 3297.000
16.66261 3432.000
16.68289 3514.000
16.70317 3101.000
16.72345 2444.000
16.74373 1924.000
16.76401 1512.000
16.78429 1245.000
16.80457 1059.000
16.82485 959.000
16.84513 953.000
16.86541 827.000
16.88569 829.000
16.90597 780.000
16.92625 769.000
16.94653 749.000
16.96681 778.000
16.98709 835.000
17.00737 801.000
17.02765 931.000
17.04793 939.000
17.06821 1052.000
17.08849 1222.000
17.10877 1288.000
17.12905 1347.000
17.14933 1465.000
17.16961 1547.000
17.18989 1713.000
17.21017 1840.000
17.23045 2250.000
17.25073 2591.000
17.27101 3213.000
17.29129 3810.000
17.31157 4327.000
17.33185 4766.000
17.35213 4786.000
17.37241 4204.000
17.39269 3528.000
17.41297 2711.000
17.43325 1875.000
17.45353 1489.000
17.47381 1260.000
17.49409 1176.000
17.51437 1187.000
17.53465 1223.000
17.55493 1361.000
17.57521 1610.000
17.59549 1882.000
17.61577 2230.000
17.63605 2720.000
17.65633 3423.000
17.67661 4097.000
17.69689 5131.000
17.71717 6130.000
17.73745 6887.000
17.75773 7226.000
17.77801 7092.000
17.79829 6052.000
17.81857 4740.000
17.83885 3664.000
17.85913 2670.000
17.87941 1994.000
17.89969 1823.000
17.91997 1665.000
17.94025 1598.000
17.96053 1632.000
17.98081 1576.000
18.00109 1547.000
18.02137 1591.000
18.04165 1583.000
18.06193 1689.000
18.08221 1753.000
18.10249 1964.000
18.12277 1996.000
18.14305 1996.000
18.16333 2240.000
18.18362 2355.000
18.20390 2719.000
18.22418 3257.000
18.24446 3723.000
18.26474 4325.000
18.28502 5057.000
18.30530 5778.000
18.32558 6567.000
18.34586 7062.000
18.36614 7505.000
18.38642 7747.000
18.40670 6869.000
18.42698 5596.000
18.44726 4288.000
18.46754 3210.000
18.48782 2235.000
18.50810 1682.000
18.52838 1409.000
18.54866 1147.000
18.56894 1071.000
18.58922 1150.000
18.60950 1195.000
18.62978 1167.000
18.65006 1131.000
18.67034 1244.000
18.69062 1269.000
18.71090 1405.000
18.73118 1514.000
18.75146 1594.000
18.77174 1730.000
18.79202 1937.000
18.81230 2195.000
18.83258 2543.000
18.85286 3009.000
18.87314 3202.000
18.89342 3580.000
18.91370 3535.000
18.93398 3294.000
18.95426 2999.000
18.97454 2567.000
18.99482 2200.000
19.01510 2010.000
19.03538 1766.000
19.05566 1576.000
19.07594 1409.000
19.09622 1168.000
19.11650 1093.000
19.13678 1020.000
19.15706 1003.000
19.17734 960.000
19.19762 966.000
19.21790 1045.000
19.23818 1088.000
19.25846 1215.000
19.27874 1282.000
19.29902 1362.000
19.31930 1470.000
19.33958 1546.000
19.35986 1577.000
19.38014 1726.000
19.40042 2034.000
19.42070 2364.000
19.44098 2619.000
19.46126 3005.000
19.48154 3302.000
19.50182 3415.000
19.52210 3225.000
19.54238 2993.000
19.56266 2635.000
19.58294 2266.000
19.60322 1998.000
19.62350 1907.000
19.64378 1957.000
19.66406 1955.000
19.68434 2307.000
19.70462 2491.000
19.72490 2923.000
19.74518 3196.000
19.76546 3488.000
19.78574 3447.000
19.80602 3242.000
19.82630 3084.000
19.84658 2755.000
19.86686 2646.000
19.88714 2711.000
19.90742 2817.000
19.92770 3158.000
19.94798 3716.000
19.96826 4088.000
19.98854 4733.000
20.00882 5375.000
20.02910 5665.000
20.04938 5504.000
20.06966 5076.000
20.08995 4314.000
20.11023 3451.000
20.13051 2851.000
20.15079 2248.000
20.17107 2067.000
20.19135 1923.000
20.21163 1818.000
20.23191 1865.000
20.25219 1988.000
20.27247 1912.000
20.29275 2115.000
20.31303 2405.000
20.33331 2445.000
20.35359 2449.000
20.37387 2316.000
20.39415 2111.000
20.41443 2022.000
20.43471 1958.000
20.45499 1946.000
20.47527 1962.000
20.49555 2316.000
20.51583 2437.000
20.53611 2868.000
20.55639 3286.000
20.57667 3716.000
20.59695 4160.000
20.61723 4503.000
20.63751 4365.000
20.65779 3991.000
20.67807 3363.000
20.69835 2631.000
20.71863 2055.000
20.73891 1470.000
20.75919 1366.000
20.77947 1123.000
20.79975 1053.000
20.82003 1054.000
20.84031 1116.000
20.86059 1161.000
20.88087 1212.000
20.90115 1243.000
20.92143 1281.000
20.94171 1232.000
20.96199 1140.000
20.98227 1096.000
21.00255 1001.000
21.02283 905.000
21.04311 887.000
21.06339 959.000
21.08367 956.000
21.10395 992.000
21.12423 999.000
21.14451 1095.000
21.16479 1122.000
21.18507 1240.000
21.20535 1333.000
21.22563 1494.000
21.24591 1600.000
21.26619 1700.000
21.28647 1821.000
21.30675 2021.000
21.32703 2148.000
21.34731 2258.000
21.36759 2560.000
21.38787 3076.000
21.40815 3370.000
21.42843 3716.000
21.44871 3997.000
21.46899 4199.000
21.48927 4403.000
21.50955 4184.000
21.52983 4044.000
21.55011 4134.000
21.57039 4388.000
21.59067 4832.000
21.61095 5334.000
21.63123 5942.000
21.65151 6460.000
21.67179 6725.000
21.69207 6682.000
21.71235 6008.000
21.73263 4878.000
21.75291 3906.000
21.77319 2910.000
21.79347 2121.000
21.81375 1689.000
21.83403 1358.000
21.85431 1329.000
21.87459 1233.000
21.89487 1218.000
21.91515 1227.000
21.93543 1276.000
21.95571 1300.000
21.97599 1398.000
21.99628 1471.000
22.01656 1514.000
22.03684 1450.000
22.05712 1643.000
22.07740 1730.000
22.09768 1918.000
22.11796 2226.000
22.13824 2430.000
22.15852 2734.000
22.17880 2918.000
22.19908 2810.000
22.21936 2452.000
22.23964 2161.000
22.25992 1725.000
22.28020 1287.000
22.30048 1151.000
22.32076 1041.000
22.34104 869.000
22.36132 883.000
22.38160 878.000
22.40188 901.000
22.42216 881.000
22.44244 947.000
22.46272 1076.000
22.48300 1082.000
22.50328 1122.000
22.52356 1146.000
22.54384 1194.000
22.56412 1170.000
22.58440 1235.000
22.60468 1244.000
22.62496 1291.000
22.64524 1342.000
22.66552 1477.000
22.68580 1477.000
22.70608 1646.000
22.72636 1716.000
22.74664 1786.000
22.76692 1732.000
22.78720 1599.000
22.80748 1394.000
22.82776 1177.000
22.84804 1095.000
22.86832 997.000
22.88860 916.000
22.90888 840.000
22.92916 851.000
22.94944 836.000
22.96972 847.000
22.99000 931.000
23.01028 942.000
23.03056 975.000
23.05084 1029.000
23.07112 1059.000
23.09140 951.000
23.11168 935.000
23.13196 904.000
23.15224 832.000
23.17252 797.000
23.19280 775.000
23.21308 804.000
23.23336 887.000
23.25364 847.000
23.27392 927.000
23.29420 999.000
23.31448 1148.000
23.33476 1205.000
23.35504 1400.000
23.37532 1596.000
23.39560 1719.000
23.41588 1838.000
23.43616 1988.000
23.45644 2006.000
23.47672 1805.000
23.49700 1624.000
23.51728 1513.000
23.53756 1371.000
23.55784 1302.000
23.57812 1265.000
23.59840 1188.000
23.61868 1145.000
23.63896 1173.000
23.65924 1226.000
23.67952 1237.000
23.69980 1244.000
23.72008 1240.000
23.74036 1183.000
23.76064 1048.000
23.78092 1008.000
23.80120 1020.000
23.82148 1089.000
23.84176 1041.000
23.86204 1148.000
23.88232 1205.000
23.90261 1316.000
23.92289 1417.000
23.94317 1479.000
23.96345 1444.000
23.98373 1435.000
24.00401 1424.000
24.02429 1452.000
24.04457 1483.000
24.06485 1414.000
24.08513 1488.000
24.10541 1497.000
24.12569 1496.000
24.14597 1488.000
24.16625 1552.000
24.18653 1669.000
24.20681 1474.000
24.22709 1378.000
24.24737 1302.000
24.26765 1162.000
24.28793 1062.000
24.30821 1014.000
24.32849 1054.000
24.34877 1064.000
24.36905 1065.000
24.38933 1173.000
24.40961 1253.000
24.42989 1193.000
24.45017 1203.000
24.47045 1210.000
24.49073 1062.000
24.51101 1072.000
24.53129 950.000
24.55157 883.000
24.57185 850.000
24.59213 940.000
24.61241 890.000
24.63269 1037.000
24.65297 1085.000
24.67325 1193.000
24.69353 1364.000
24.71381 1495.000
24.73409 1526.000
24.75437 1568.000
24.77465 1557.000
24.79493 1472.000
24.81521 1443.000
24.83549 1370.000
24.85577 1263.000
24.87605 1119.000
24.89633 1054.000
24.91661 932.000
24.93689 883.000
24.95717 822.000
24.97745 831.000
24.99773 775.000
25.01801 749.000
25.03829 769.000
25.05857 838.000
25.07885 878.000
25.09913 922.000
25.11941 1095.000
25.13969 1178.000
25.15997 1296.000
25.18025 1471.000
25.20053 1600.000
25.22081 1868.000
25.24109 2024.000
25.26137 2373.000
25.28165 2562.000
25.30193 2912.000
25.32221 2973.000
25.34249 2945.000
25.36277 2867.000
25.38305 2586.000
25.40333 2188.000
25.42361 2001.000
25.44389 1830.000
25.46417 1616.000
25.48445 1447.000
25.50473 1329.000
25.52501 1128.000
25.54529 1005.000
25.56557 923.000
25.58585 852.000
25.60613 823.000
25.62641 812.000
25.64669 813.000
25.66697 865.000
25.68725 986.000
25.70753 1023.000
25.72781 1105.000
25.74809 1206.000
25.76837 1310.000
25.78865 1378.000
25.80893 1486.000
25.82922 1379.000
25.84950 1265.000
25.86978 1244.000
25.89006 1161.000
25.91034 1098.000
25.93062 1087.000
25.95090 1154.000
25.97118 1104.000
25.99146 1320.000
26.01174 1434.000
26.03202 1516.000
26.05230 1704.000
26.07258 1764.000
26.09286 1962.000
26.11314 2013.000
26.13342 1925.000
26.15370 1785.000
26.17398 1584.000
26.19426 1535.000
26.21454 1394.000
26.23482 1420.000
26.25510 1376.000
26.27538 1342.000
26.29566 1427.000
26.31594 1421.000
26.33622 1433.000
26.35650 1417.000
26.37678 1376.000
26.39706 1336.000
26.41734 1394.000
26.43762 1305.000
26.45790 1384.000
26.47818 1377.000
26.49846 1362.000
26.51874 1349.000
26.53902 1261.000
26.55930 1050.000
26.57958 980.000
26.59986 909.000
26.62014 828.000
26.64042 717.000
26.66070 732.000
26.68098 692.000
26.70126 733.000
26.72154 754.000
26.74182 769.000
26.76210 736.000
26.78238 780.000
26.80266 820.000
26.82294 834.000
26.84322 980.000
26.86350 983.000
26.88378 1059.000
26.90406 1093.000
26.92434 1125.000
26.94462 1094.000
26.96490 1021.000
26.98518 950.000
27.00546 839.000
27.02574 822.000
27.04602 696.000
27.06630 627.000
27.08658 654.000
27.10686 619.000
27.12714 595.000
27.14742 668.000
27.16770 639.000
27.18798 633.000
27.20826 636.000
27.22854 676.000
27.24882 688.000
27.26910 697.000
27.28938 702.000
27.30966 697.000
27.32994 756.000
27.35022 737.000
27.37050 780.000
27.39078 772.000
27.41106 756.000
27.43134 729.000
27.45162 782.000
27.47190 767.000
27.49218 839.000
27.51246 873.000
27.53274 806.000
27.55302 806.000
27.57330 848.000
27.59358 727.000
27.61386 633.000
27.63414 610.000
27.65442 555.000
27.67470 530.000
27.69498 498.000
27.71526 483.000
27.73555 486.000
27.75583 493.000
27.77611 526.000
27.79639 531.000
27.81667 519.000
27.83695 477.000
27.85723 501.000
27.87751 517.000
27.89779 477.000
27.91807 496.000
27.93835 530.000
27.95863 540.000
27.97891 537.000
27.99919 559.000
28.01947 540.000
28.03975 552.000
28.06003 532.000
28.08031 515.000
28.10059 490.000
28.12087 529.000
28.14115 511.000
28.16143 538.000
28.18171 508.000
28.20199 533.000
28.22227 549.000
28.24255 553.000
28.26283 573.000
28.28311 580.000
28.30339 659.000
28.32367 663.000
28.34395 774.000
28.36423 839.000
28.38451 893.000
28.40479 1001.000
28.42507 1049.000
28.44535 1198.000
28.46563 1318.000
28.48591 1441.000
28.50619 1591.000
28.52647 1719.000
28.54675 1796.000
28.56703 1865.000
28.58731 1875.000
28.60759 1775.000
28.62787 1703.000
28.64815 1636.000
28.66843 1500.000
28.68871 1379.000
28.70899 1356.000
28.72927 1268.000
28.74955 1250.000
28.76983 1132.000
28.79011 1091.000
28.81039 1028.000
28.83067 881.000
28.85095 814.000
28.87123 746.000
28.89151 691.000
28.91179 599.000
28.93207 593.000
28.95235 548.000
28.97263 535.000
28.99291 524.000
29.01319 555.000
29.03347 571.000
29.05375 547.000
29.07403 563.000
29.09431 623.000
29.11459 573.000
29.13487 589.000
29.15515 628.000
29.17543 683.000
29.19571 622.000
29.21599 663.000
29.23627 629.000
29.25655 590.000
29.27683 593.000
29.29711 556.000
29.31739 560.000
29.33767 561.000
29.35795 515.000
29.37823 536.000
29.39851 499.000
29.41879 554.000
29.43907 532.000
29.45935 585.000
29.47963 552.000
29.49991 532.000
29.52019 628.000
29.54047 605.000
29.56075 587.000
29.58103 659.000
29.60131 760.000
29.62159 770.000
29.64188 814.000
29.66216 896.000
29.68244 1015.000
29.70272 1056.000
29.72300 1181.000
29.74328 1246.000
29.76356 1358.000
29.78384 1402.000
29.80412 1393.000
29.82440 1430.000
29.84468 1387.000
29.86496 1345.000
29.88524 1266.000
29.90552 1257.000
29.92580 1162.000
29.94608 1135.000
29.96636 1139.000
29.98664 1083.000
30.00692 1127.000
30.02720 1115.000
30.04748 1198.000
30.06776 1224.000
30.08804 1160.000
30.10832 1148.000
30.12860 1041.000
30.14888 1086.000
30.16916 981.000
30.18944 1028.000
30.20972 949.000
30.23000 962.000
30.25028 910.000
30.27056 892.000
30.29084 818.000
30.31112 787.000
30.33140 763.000
30.35168 858.000
30.37196 770.000
30.39224 715.000
30.41252 684.000
30.43280 642.000
30.45308 608.000
30.47336 598.000
30.49364 565.000
30.51392 529.000
30.53420 490.000
30.55448 490.000
30.57476 509.000
30.59504 497.000
30.61532 469.000
30.63560 532.000
30.65588 518.000
30.67616 535.000
30.69644 531.000
30.71672 582.000
30.73700 603.000
30.75728 596.000
30.77756 607.000
30.79784 602.000
30.81812 569.000
30.83840 613.000
30.85868 596.000
30.87896 617.000
30.89924 699.000
30.91952 727.000
30.93980 726.000
30.96008 667.000
30.98036 707.000
31.00064 606.000
31.02092 643.000
31.04120 614.000
31.06148 600.000
31.08176 654.000
31.10204 635.000
31.12232 662.000
31.14260 675.000
31.16288 616.000
31.18316 711.000
31.20344 717.000
31.22372 748.000
31.24400 780.000
31.26428 792.000
31.28456 894.000
31.30484 847.000
31.32512 920.000
31.34540 963.000
31.36568 906.000
31.38596 888.000
31.40624 906.000
31.42652 880.000
31.44680 917.000
31.46708 909.000
31.48736 910.000
31.50764 964.000
31.52792 1057.000
31.54821 1140.000
31.56849 1193.000
31.58877 1289.000
31.60905 1350.000
31.62933 1349.000
31.64961 1419.000
31.66989 1381.000
31.69017 1350.000
31.71045 1261.000
31.73073 1154.000
31.75101 1005.000
31.77129 1064.000
31.79157 997.000
31.81185 879.000
31.83213 854.000
31.85241 815.000
31.87269 799.000
31.89297 772.000
31.91325 783.000
31.93353 793.000
31.95381 838.000
31.97409 847.000
31.99437 907.000
32.01465 873.000
32.03493 966.000
32.05521 973.000
32.07549 901.000
32.09577 846.000
32.11605 753.000
32.13633 746.000
32.15661 713.000
32.17689 695.000
32.19717 625.000
32.21745 626.000
32.23773 616.000
32.25801 569.000
32.27829 596.000
32.29857 631.000
32.31885 615.000
32.33913 597.000
32.35941 646.000
32.37969 630.000
32.39997 639.000
32.42025 625.000
32.44053 576.000
32.46081 587.000
32.48109 569.000
32.50137 538.000
32.52165 520.000
32.54193 467.000
32.56221 497.000
32.58249 517.000
32.60277 531.000
32.62305 506.000
32.64333 498.000
32.66361 498.000
32.68389 521.000
32.70417 501.000
32.72445 475.000
32.74473 457.000
32.76501 509.000
32.78529 520.000
32.80557 486.000
32.82585 466.000
32.84613 501.000
32.86641 487.000
32.88669 488.000
32.90697 577.000
32.92725 529.000
32.94753 583.000
32.96781 548.000
32.98809 559.000
33.00837 527.000
33.02865 607.000
33.04893 637.000
33.06921 661.000
33.08949 656.000
33.10977 772.000
33.13005 685.000
33.15033 767.000
33.17061 754.000
33.19089 743.000
33.21117 728.000
33.23145 627.000
33.25173 619.000
33.27201 595.000
33.29229 598.000
33.31257 567.000
33.33285 554.000
33.35313 527.000
33.37341 507.000
33.39369 542.000
33.41397 585.000
33.43425 601.000
33.45454 595.000
33.47482 619.000
33.49510 588.000
33.51538 603.000
33.53566 601.000
33.55594 600.000
33.57622 662.000
33.59650 622.000
33.61678 707.000
33.63706 729.000
33.65734 781.000
33.67762 722.000
33.69790 680.000
33.71818 687.000
33.73846 695.000
33.75874 634.000
33.77902 606.000
33.79930 516.000
33.81958 549.000
33.83986 512.000
33.86014 513.000
33.88042 523.000
33.90070 482.000
33.92098 505.000
33.94126 460.000
33.96154 488.000
33.98182 499.000
34.00210 483.000
34.02238 476.000
34.04266 426.000
34.06294 428.000
34.08322 485.000
34.10350 492.000
34.12378 484.000
34.14406 494.000
34.16434 475.000
34.18462 491.000
34.20490 485.000
34.22518 512.000
34.24546 482.000
34.26574 432.000
34.28602 453.000
34.30630 426.000
34.32658 467.000
34.34686 426.000
34.36714 449.000
34.38742 438.000
34.40770 467.000
34.42798 387.000
34.44826 449.000
34.46854 442.000
34.48882 493.000
34.50910 493.000
34.52938 471.000
34.54966 485.000
34.56994 489.000
34.59022 496.000
34.61050 536.000
34.63078 557.000
34.65106 566.000
34.67134 600.000
34.69162 565.000
34.71190 569.000
34.73218 581.000
34.75246 571.000
34.77274 562.000
34.79302 577.000
34.81330 610.000
34.83358 620.000
34.85386 684.000
34.87414 690.000
34.89442 731.000
34.91470 762.000
34.93498 774.000
34.95526 795.000
34.97554 856.000
34.99582 890.000
35.01610 878.000
35.03638 872.000
35.05666 951.000
35.07694 1002.000
35.09722 849.000
35.11750 834.000
35.13778 782.000
35.15806 730.000
35.17834 803.000
35.19862 781.000
35.21890 808.000
35.23918 750.000
35.25946 818.000
35.27974 793.000
35.30002 824.000
35.32030 790.000
35.34058 781.000
35.36087 668.000
35.38115 679.000
35.40143 631.000
35.42171 611.000
35.44199 553.000
35.46227 531.000
35.48255 493.000
35.50283 469.000
35.52311 480.000
35.54339 494.000
35.56367 503.000
35.58395 492.000
35.60423 456.000
35.62451 440.000
35.64479 430.000
35.66507 445.000
35.68535 458.000
35.70563 439.000
35.72591 482.000
35.74619 464.000
35.76647 466.000
35.78675 446.000
35.80703 481.000
35.82731 485.000
35.84759 478.000
35.86787 525.000
35.88815 537.000
35.90843 591.000
35.92871 613.000
35.94899 622.000
35.96927 589.000
35.98955 650.000
36.00983 624.000
36.03011 691.000
36.05039 744.000
36.07067 743.000
36.09095 757.000
36.11123 782.000
36.13151 848.000
36.15179 834.000
36.17207 865.000
36.19235 913.000
36.21263 917.000
36.23291 919.000
36.25319 868.000
36.27347 896.000
36.29375 895.000
36.31403 879.000
36.33431 848.000
36.35459 732.000
36.37487 754.000
36.39515 680.000
36.41543 687.000
36.43571 662.000
36.45599 593.000
36.47627 630.000
36.49655 590.000
36.51683 559.000
36.53711 529.000
36.55739 547.000
36.57767 573.000
36.59795 485.000
36.61823 504.000
36.63851 503.000
36.65879 492.000
36.67907 507.000
36.69935 563.000
36.71963 543.000
36.73991 521.000
36.76019 546.000
36.78047 530.000
36.80075 471.000
36.82103 507.000
36.84131 505.000
36.86159 436.000
36.88187 468.000
36.90215 458.000
36.92243 480.000
36.94271 476.000
36.96299 472.000
36.98327 464.000
37.00355 447.000
37.02383 474.000
37.04411 452.000
37.06439 518.000
37.08467 519.000
37.10495 555.000
37.12523 577.000
37.14551 570.000
37.16579 607.000
37.18607 621.000
37.20635 669.000
37.22663 669.000
37.24691 651.000
37.26720 663.000
37.28748 697.000
37.30776 657.000
37.32804 611.000
37.34832 613.000
37.36860 577.000
37.38888 566.000
37.40916 531.000
37.42944 522.000
37.44972 497.000
37.47000 507.000
37.49028 446.000
37.51056 451.000
37.53084 477.000
37.55112 424.000
37.57140 434.000
37.59168 460.000
37.61196 426.000
37.63224 478.000
37.65252 408.000
37.67280 467.000
37.69308 462.000
37.71336 437.000
37.73364 416.000
37.75392 432.000
37.77420 459.000
37.79448 454.000
37.81476 475.000
37.83504 490.000
37.85532 519.000
37.87560 554.000
37.89588 518.000
37.91616 576.000
37.93644 585.000
37.95672 579.000
37.97700 564.000
37.99728 528.000
38.01756 595.000
38.03784 597.000
38.05812 567.000
38.07840 585.000
38.09868 497.000
38.11896 527.000
38.13924 541.000
38.15952 506.000
38.17980 550.000
38.20008 563.000
38.22036 581.000
38.24064 560.000
38.26092 626.000
38.28120 612.000
38.30148 596.000
38.32176 640.000
38.34204 625.000
38.36232 635.000
38.38260 640.000
38.40288 649.000
38.42316 612.000
38.44344 654.000
38.46372 648.000
38.48400 653.000
38.50428 626.000
38.52456 561.000
38.54484 540.000
38.56512 588.000
38.58540 507.000
38.60568 558.000
38.62596 468.000
38.64624 458.000
38.66652 520.000
38.68680 524.000
38.70708 531.000
38.72736 494.000
38.74764 545.000
38.76792 537.000
38.78820 560.000
38.80848 571.000
38.82876 595.000
38.84904 580.000
38.86932 567.000
38.88960 669.000
38.90988 691.000
38.93016 694.000
38.95044 676.000
38.97072 669.000
38.99100 726.000
39.01128 736.000
39.03156 756.000
39.05184 772.000
39.07212 713.000
39.09240 719.000
39.11268 693.000
39.13296 629.000
39.15324 585.000
39.17353 542.000
39.19381 548.000
39.21409 559.000
39.23437 565.000
39.25465 483.000
39.27493 556.000
39.29521 522.000
39.31549 493.000
39.33577 537.000
39.35605 492.000
39.37633 504.000
39.39661 527.000
39.41689 511.000
39.43717 545.000
39.45745 579.000
39.47773 568.000
39.49801 569.000
39.51829 576.000
39.53857 573.000
39.55885 575.000
39.57913 559.000
39.59941 614.000
39.61969 551.000
39.63997 558.000
39.66025 536.000
39.68053 513.000
39.70081 511.000
39.72109 465.000
39.74137 524.000
39.76165 466.000
39.78193 507.000
39.80221 497.000
39.82249 530.000
39.84277 534.000
39.86305 567.000
39.88333 516.000
39.90361 544.000
39.92389 566.000
39.94417 505.000
39.96445 516.000
39.98473 565.000
40.00501 547.000
40.02529 573.000
40.04557 507.000
40.06585 574.000
40.08613 548.000
40.10641 561.000
40.12669 565.000
40.14697 577.000
40.16725 507.000
40.18753 561.000
40.20781 581.000
40.22809 551.000
40.24837 541.000
40.26865 558.000
40.28893 624.000
40.30921 631.000
40.32949 585.000
40.34977 638.000
40.37005 725.000
40.39033 765.000
40.41061 699.000
40.43089 831.000
40.45117 847.000
40.47145 812.000
40.49173 800.000
40.51201 866.000
40.53229 895.000
40.55257 892.000
40.57285 866.000
40.59313 841.000
40.61341 751.000
40.63369 777.000
40.65397 683.000
40.67425 709.000
40.69453 681.000
40.71481 648.000
40.73509 594.000
40.75537 567.000
40.77565 520.000
40.79593 520.000
40.81621 518.000
40.83649 516.000
40.85677 489.000
40.87705 485.000
40.89733 450.000
40.91761 519.000
40.93789 504.000
40.95817 500.000
40.97845 494.000
40.99873 520.000
41.01901 459.000
41.03929 528.000
41.05957 507.000
41.07986 508.000
41.10014 535.000
41.12042 513.000
41.14070 510.000
41.16098 493.000
41.18126 538.000
41.20154 520.000
41.22182 495.000
41.24210 508.000
41.26238 494.000
41.28266 538.000
41.30294 497.000
41.32322 493.000
41.34350 507.000
41.36378 476.000
41.38406 510.000
41.40434 474.000
41.42462 484.000
41.44490 449.000
41.46518 439.000
41.48546 435.000
41.50574 436.000
41.52602 443.000
41.54630 421.000
41.56658 439.000
41.58686 443.000
41.60714 431.000
41.62742 443.000
41.64770 445.000
41.66798 454.000
41.68826 442.000
41.70854 442.000
41.72882 502.000
41.74910 464.000
41.76938 498.000
41.78966 486.000
41.80994 471.000
41.83022 399.000
41.85050 475.000
41.87078 435.000
41.89106 413.000
41.91134 428.000
41.93162 362.000
41.95190 411.000
41.97218 405.000
41.99246 382.000
42.01274 377.000
42.03302 357.000
42.05330 406.000
42.07358 392.000
42.09386 365.000
42.11414 448.000
42.13442 400.000
42.15470 414.000
42.17498 399.000
42.19526 414.000
42.21554 391.000
42.23582 427.000
42.25610 413.000
42.27638 407.000
42.29666 385.000
42.31694 458.000
42.33722 427.000
42.35750 444.000
42.37778 453.000
42.39806 453.000
42.41834 492.000
42.43862 496.000
42.45890 492.000
42.47918 477.000
42.49946 522.000
42.51974 495.000
42.54002 574.000
42.56030 495.000
42.58058 511.000
42.60086 555.000
42.62114 496.000
42.64142 500.000
42.66170 493.000
42.68198 451.000
42.70226 472.000
42.72254 522.000
42.74282 454.000
42.76310 462.000
42.78338 504.000
42.80366 434.000
42.82394 447.000
42.84422 479.000
42.86450 451.000
42.88478 462.000
42.90506 462.000
42.92534 470.000
42.94562 467.000
42.96590 455.000
42.98619 449.000
43.00647 494.000
43.02675 479.000
43.04703 503.000
43.06731 513.000
43.08759 487.000
43.10787 484.000
43.12815 504.000
43.14843 512.000
43.16871 532.000
43.18899 513.000
43.20927 555.000
43.22955 535.000
43.24983 525.000
43.27011 556.000
43.29039 556.000
43.31067 504.000
43.33095 492.000
43.35123 532.000
43.37151 497.000
43.39179 504.000
43.41207 494.000
43.43235 509.000
43.45263 486.000
43.47291 505.000
43.49319 526.000
43.51347 522.000
43.53375 533.000
43.55403 485.000
43.57431 522.000
43.59459 538.000
43.61487 536.000
43.63515 560.000
43.65543 573.000
43.67571 516.000
43.69599 545.000
43.71627 556.000
43.73655 603.000
43.75683 531.000
43.77711 541.000
43.79739 534.000
43.81767 574.000
43.83795 519.000
43.85823 529.000
43.87851 529.000
43.89879 540.000
43.91907 514.000
43.93935 528.000
43.95963 496.000
43.97991 533.000
44.00019 507.000
44.02047 472.000
44.04075 442.000
44.06103 491.000
44.08131 499.000
44.10159 458.000
44.12187 465.000
44.14215 476.000
44.16243 501.000
44.18271 521.000
44.20299 532.000
44.22327 550.000
44.24355 570.000
44.26383 533.000
44.28411 590.000
44.30439 609.000
44.32467 590.000
44.34495 623.000
44.36523 620.000
44.38551 629.000
44.40579 632.000
44.42607 611.000
44.44635 595.000
44.46663 652.000
44.48691 663.000
44.50719 657.000
44.52747 645.000
44.54775 657.000
44.56803 559.000
44.58831 605.000
44.60859 645.000
44.62887 627.000
44.64915 599.000
44.66943 614.000
44.68971 629.000
44.70999 612.000
44.73027 607.000
44.75055 604.000
44.77083 626.000
44.79111 571.000
44.81139 566.000
44.83167 613.000
44.85195 536.000
44.87223 565.000
44.89251 507.000
44.91280 533.000
44.93308 511.000
44.95336 525.000
44.97364 492.000
44.99392 531.000
45.01420 507.000
45.03448 511.000
45.05476 521.000
45.07504 485.000
45.09532 525.000
45.11560 514.000
45.13588 487.000
45.15616 532.000
45.17644 477.000
45.19672 523.000
45.21700 543.000
45.23728 528.000
45.25756 555.000
45.27784 500.000
45.29812 481.000
45.31840 541.000
45.33868 520.000
45.35896 534.000
45.37924 521.000
45.39952 546.000
45.41980 526.000
45.44008 492.000
45.46036 557.000
45.48064 523.000
45.50092 544.000
45.52120 526.000
45.54148 547.000
45.56176 560.000
45.58204 546.000
45.60232 542.000
45.62260 550.000
45.64288 502.000
45.66316 522.000
45.68344 508.000
45.70372 522.000
45.72400 519.000
45.74428 464.000
45.76456 463.000
45.78484 466.000
45.80512 491.000
45.82540 489.000
45.84568 429.000
45.86596 463.000
45.88624 483.000
45.90652 456.000
45.92680 508.000
45.94708 451.000
45.96736 452.000
45.98764 444.000
46.00792 478.000
46.02820 486.000
46.04848 489.000
46.06876 473.000
46.08904 526.000
46.10932 484.000
46.12960 496.000
46.14988 512.000
46.17016 507.000
46.19044 513.000
46.21072 540.000
46.23100 524.000
46.25128 523.000
46.27156 494.000
46.29184 552.000
46.31212 534.000
46.33240 527.000
46.35268 530.000
46.37296 590.000
46.39324 552.000
46.41352 574.000
46.43380 546.000
46.45408 596.000
46.47436 574.000
46.49464 548.000
46.51492 574.000
46.53520 613.000
46.55548 652.000
46.57576 583.000
46.59604 574.000
46.61632 597.000
46.63660 599.000
46.65688 551.000
46.67716 549.000
46.69744 537.000
46.71772 490.000
46.73800 547.000
46.75828 500.000
46.77856 459.000
46.79884 502.000
46.81913 497.000
46.83941 442.000
46.85969 479.000
46.87997 461.000
46.90025 488.000
46.92053 517.000
46.94081 485.000
46.96109 492.000
46.98137 472.000
47.00165 441.000
47.02193 469.000
47.04221 457.000
47.06249 454.000
47.08277 438.000
47.10305 440.000
47.12333 480.000
47.14361 455.000
47.16389 466.000
47.18417 460.000
47.20445 455.000
47.22473 412.000
47.24501 477.000
47.26529 508.000
47.28557 485.000
47.30585 471.000
47.32613 511.000
47.34641 479.000
47.36669 543.000
47.38697 480.000
47.40725 480.000
47.42753 509.000
47.44781 493.000
47.46809 507.000
47.48837 514.000
47.50865 508.000
47.52893 498.000
47.54921 538.000
47.56949 505.000
47.58977 502.000
47.61005 524.000
47.63033 460.000
47.65061 467.000
47.67089 482.000
47.69117 452.000
47.71145 478.000
47.73173 499.000
47.75201 461.000
47.77229 488.000
47.79257 501.000
47.81285 472.000
47.83313 496.000
47.85341 463.000
47.87369 471.000
47.89397 451.000
47.91425 481.000
47.93453 522.000
47.95481 482.000
47.97509 529.000
47.99537 489.000
48.01565 481.000
48.03593 550.000
48.05621 482.000
48.07649 482.000
48.09677 503.000
48.11705 482.000
48.13733 459.000
48.15761 488.000
48.17789 451.000
48.19817 449.000
48.21845 468.000
48.23873 441.000
48.25901 460.000
48.27929 487.000
48.29957 427.000
48.31985 437.000
48.34013 502.000
48.36041 443.000
48.38069 508.000
48.40097 491.000
48.42125 468.000
48.44153 457.000
48.46181 478.000
48.48209 453.000
48.50237 423.000
48.52265 454.000
48.54293 410.000
48.56321 459.000
48.58349 441.000
48.60377 459.000
48.62405 424.000
48.64433 393.000
48.66461 447.000
48.68489 418.000
48.70517 414.000
48.72546 431.000
48.74574 440.000
48.76602 430.000
48.78630 424.000
48.80658 460.000
48.82686 460.000
48.84714 461.000
48.86742 463.000
48.88770 460.000
48.90798 479.000
48.92826 435.000
48.94854 479.000
48.96882 457.000
48.98910 502.000
49.00938 492.000
49.02966 484.000
49.04994 466.000
49.07022 484.000
49.09050 449.000
49.11078 448.000
49.13106 451.000
49.15134 470.000
49.17162 463.000
49.19190 468.000
49.21218 425.000
49.23246 430.000
49.25274 446.000
49.27302 447.000
49.29330 424.000
49.31358 441.000
49.33386 426.000
49.35414 426.000
49.37442 404.000
49.39470 425.000
49.41498 419.000
49.43526 427.000
49.45554 401.000
49.47582 398.000
49.49610 442.000
49.51638 407.000
49.53666 407.000
49.55694 410.000
49.57722 421.000
49.59750 393.000
49.61778 436.000
49.63806 357.000
49.65834 418.000
49.67862 377.000
49.69890 406.000
49.71918 404.000
49.73946 406.000
49.75974 463.000
49.78002 400.000
49.80030 450.000
49.82058 415.000
49.84086 472.000
49.86114 449.000
49.88142 446.000
49.90170 417.000
49.92198 447.000
49.94226 411.000
49.96254 444.000
49.98282 397.000
50.00310 406.000
