5.00155 726.000
5.02183 685.000
5.04211 734.000
5.06239 749.000
5.08267 718.000
5.10295 723.000
5.12323 743.000
5.14351 685.000
5.16379 670.000
5.18407 710.000
5.20435 663.000
5.22463 696.000
5.24491 651.000
5.26519 683.000
5.28547 673.000
5.30575 726.000
5.32603 584.000
5.34631 634.000
5.36659 653.000
5.38687 661.000
5.40715 633.000
5.42743 629.000
5.44771 689.000
5.46799 613.000
5.48827 597.000
5.50855 595.000
5.52883 583.000
5.54911 659.000
5.56939 631.000
5.58967 577.000
5.60995 607.000
5.63023 543.000
5.65051 588.000
5.67079 575.000
5.69107 594.000
5.71135 570.000
5.73163 585.000
5.75191 541.000
5.77219 556.000
5.79247 549.000
5.81275 521.000
5.83303 525.000
5.85331 516.000
5.87359 525.000
5.89387 552.000
5.91415 528.000
5.93443 531.000
5.95471 514.000
5.97499 481.000
5.99527 475.000
6.01555 478.000
6.03583 505.000
6.05611 490.000
6.07639 505.000
6.09667 501.000
6.11695 527.000
6.13723 472.000
6.15751 521.000
6.17779 543.000
6.19807 482.000
6.21835 482.000
6.23863 514.000
6.25891 514.000
6.27919 511.000
6.29947 571.000
6.31975 541.000
6.34003 540.000
6.36031 636.000
6.38059 641.000
6.40087 615.000
6.42115 655.000
6.44143 645.000
6.46171 689.000
6.48199 600.000
6.50227 626.000
6.52255 632.000
6.54283 707.000
6.56311 663.000
6.58339 702.000
6.60367 840.000
6.62395 1006.000
6.64423 1088.000
6.66451 1171.000
6.68479 1554.000
6.70507 1837.000
6.72536 2120.000
6.74564 2719.000
6.76592 3150.000
6.78620 3556.000
6.80648 4026.000
6.82676 4161.000
6.84704 4037.000
6.86732 3610.000
6.88760 3154.000
6.90788 2270.000
6.92816 1712.000
6.94844 1208.000
6.96872 914.000
6.98900 774.000
7.00928 639.000
7.02956 605.000
7.04984 554.000
7.07012 543.000
7.09040 500.000
7.11068 499.000
7.13096 432.000
7.15124 534.000
7.17152 530.000
7.19180 459.000
7.21208 481.000
7.23236 451.000
7.25264 431.000
7.27292 460.000
7.29320 440.000
7.31348 474.000
7.33376 437.000
7.35404 435.000
7.37432 416.000
7.39460 456.000
7.41488 409.000
7.43516 413.000
7.45544 423.000
7.47572 463.000
7.49600 459.000
7.51628 429.000
7.53656 412.000
7.55684 440.000
7.57712 400.000
7.59740 431.000
7.61768 421.000
7.63796 451.000
7.65824 433.000
7.67852 419.000
7.69880 437.000
7.71908 420.000
7.73936 383.000
7.75964 431.000
7.77992 408.000
7.80020 418.000
7.82048 432.000
7.84076 415.000
7.86104 409.000
7.88132 441.000
7.90160 458.000
7.92188 455.000
7.94216 386.000
7.96244 409.000
7.98272 470.000
8.00300 497.000
8.02328 472.000
8.04356 515.000
8.06384 531.000
8.08412 566.000
8.10440 614.000
8.12468 660.000
8.14496 726.000
8.16524 756.000
8.18552 917.000
8.20580 1001.000
8.22608 1138.000
8.24636 1344.000
8.26664 1624.000
8.28692 1968.000
8.30720 2454.000
8.32748 3048.000
8.34776 3740.000
8.36804 4372.000
8.38832 4536.000
8.40860 4540.000
8.42888 4058.000
8.44916 3312.000
8.46944 2435.000
8.48972 1966.000
8.51000 1637.000
8.53028 1539.000
8.55056 1457.000
8.57084 1529.000
8.59112 1646.000
8.61140 1905.000
8.63168 2035.000
8.65197 2031.000
8.67225 1999.000
8.69253 1694.000
8.71281 1466.000
8.73309 1117.000
8.75337 965.000
8.77365 799.000
8.79393 716.000
8.81421 647.000
8.83449 590.000
8.85477 555.000
8.87505 530.000
8.89533 484.000
8.91561 526.000
8.93589 505.000
8.95617 476.000
8.97645 487.000
8.99673 486.000
9.01701 506.000
9.03729 469.000
9.05757 487.000
9.07785 466.000
9.09813 470.000
9.11841 467.000
9.13869 431.000
9.15897 451.000
9.17925 426.000
9.19953 433.000
9.21981 466.000
9.24009 485.000
9.26037 500.000
9.28065 540.000
9.30093 478.000
9.32121 557.000
9.34149 554.000
9.36177 627.000
9.38205 677.000
9.40233 748.000
9.42261 898.000
9.44289 1021.000
9.46317 1121.000
9.48345 1245.000
9.50373 1150.000
9.52401 1257.000
9.54429 1057.000
9.56457 886.000
9.58485 784.000
9.60513 657.000
9.62541 608.000
9.64569 507.000
9.66597 610.000
9.68625 632.000
9.70653 622.000
9.72681 650.000
9.74709 742.000
9.76737 891.000
9.78765 1032.000
9.80793 1144.000
9.82821 1307.000
9.84849 1555.000
9.86877 1651.000
9.88905 1544.000
9.90933 1419.000
9.92961 1242.000
9.94989 990.000
9.97017 833.000
9.99045 674.000
10.01073 611.000
10.03101 567.000
10.05129 587.000
10.07157 530.000
10.09185 496.000
10.11213 512.000
10.13241 469.000
10.15269 463.000
10.17297 481.000
10.19325 483.000
10.21353 467.000
10.23381 430.000
10.25409 406.000
10.27437 432.000
10.29465 471.000
10.31493 462.000
10.33521 463.000
10.35549 429.000
10.37577 476.000
10.39605 512.000
10.41633 489.000
10.43661 525.000
10.45689 573.000
10.47717 643.000
10.49745 731.000
10.51773 764.000
10.53801 991.000
10.55830 1018.000
10.57858 994.000
10.59886 970.000
10.61914 888.000
10.63942 798.000
10.65970 659.000
10.67998 538.000
10.70026 543.000
10.72054 541.000
10.74082 543.000
10.76110 493.000
10.78138 534.000
10.80166 510.000
10.82194 599.000
10.84222 684.000
10.86250 745.000
10.88278 802.000
10.90306 841.000
10.92334 1062.000
10.94362 1093.000
10.96390 1176.000
10.98418 1049.000
11.00446 949.000
11.02474 803.000
11.04502 681.000
11.06530 572.000
11.08558 531.000
11.10586 458.000
11.12614 431.000
11.14642 438.000
11.16670 407.000
11.18698 417.000
11.20726 448.000
11.22754 399.000
11.24782 377.000
11.26810 401.000
11.28838 377.000
11.30866 374.000
11.32894 360.000
11.34922 395.000
11.36950 395.000
11.38978 385.000
11.41006 354.000
11.43034 381.000
11.45062 353.000
11.47090 364.000
11.49118 380.000
11.51146 366.000
11.53174 377.000
11.55202 347.000
11.57230 379.000
11.59258 359.000
11.61286 340.000
11.63314 368.000
11.65342 375.000
11.67370 398.000
11.69398 402.000
11.71426 350.000
11.73454 385.000
11.75482 380.000
11.77510 371.000
11.79538 361.000
11.81566 394.000
11.83594 377.000
11.85622 368.000
11.87650 371.000
11.89678 401.000
11.91706 370.000
11.93734 364.000
11.95762 345.000
11.97790 385.000
11.99818 346.000
12.01846 394.000
12.03874 380.000
12.05902 395.000
12.07930 384.000
12.09958 376.000
12.11986 347.000
12.14014 341.000
12.16042 367.000
12.18070 379.000
12.20098 402.000
12.22126 355.000
12.24154 413.000
12.26182 388.000
12.28210 376.000
12.30238 429.000
12.32266 414.000
12.34294 398.000
12.36322 363.000
12.38350 406.000
12.40378 388.000
12.42406 414.000
12.44434 426.000
12.46463 413.000
12.48491 410.000
12.50519 378.000
12.52547 350.000
12.54575 410.000
12.56603 352.000
12.58631 383.000
12.60659 358.000
12.62687 385.000
12.64715 391.000
12.66743 370.000
12.68771 425.000
12.70799 383.000
12.72827 396.000
12.74855 400.000
12.76883 421.000
12.78911 378.000
12.80939 410.000
12.82967 412.000
12.84995 408.000
12.87023 423.000
12.89051 428.000
12.91079 428.000
12.93107 471.000
12.95135 453.000
12.97163 494.000
12.99191 484.000
13.01219 499.000
13.03247 491.000
13.05275 531.000
13.07303 523.000
13.09331 564.000
13.11359 618.000
13.13387 625.000
13.15415 712.000
13.17443 788.000
13.19471 879.000
13.21499 840.000
13.23527 892.000
13.25555 1004.000
13.27583 963.000
13.29611 908.000
13.31639 1001.000
13.33667 1047.000
13.35695 1081.000
13.37723 957.000
13.39751 984.000
13.41779 954.000
13.43807 950.000
13.45835 929.000
13.47863 1003.000
13.49891 1151.000
13.51919 1202.000
13.53947 1474.000
13.55975 1531.000
13.58003 1504.000
13.60031 1536.000
13.62059 1572.000
13.64087 1460.000
13.66115 1521.000
13.68143 1574.000
13.70171 1537.000
13.72199 1506.000
13.74227 1468.000
13.76255 1331.000
13.78283 1228.000
13.80311 1161.000
13.82339 1079.000
13.84367 961.000
13.86395 848.000
13.88423 763.000
13.90451 655.000
13.92479 552.000
13.94507 586.000
13.96535 537.000
13.98563 505.000
14.00591 464.000
14.02619 473.000
14.04647 439.000
14.06675 455.000
14.08703 441.000
14.10731 464.000
14.12759 446.000
14.14787 431.000
14.16815 461.000
14.18843 470.000
14.20871 422.000
14.22899 439.000
14.24927 450.000
14.26955 456.000
14.28983 461.000
14.31011 466.000
14.33039 469.000
14.35067 484.000
14.37096 480.000
14.39124 453.000
14.41152 508.000
14.43180 483.000
14.45208 556.000
14.47236 509.000
14.49264 589.000
14.51292 628.000
14.53320 664.000
14.55348 706.000
14.57376 807.000
14.59404 989.000
14.61432 1279.000
14.63460 1428.000
14.65488 1634.000
14.67516 1826.000
14.69544 1925.000
14.71572 1830.000
14.73600 1635.000
14.75628 1400.000
14.77656 1148.000
14.79684 967.000
14.81712 966.000
14.83740 983.000
14.85768 1042.000
14.87796 1155.000
14.89824 1278.000
14.91852 1368.000
14.93880 1365.000
14.95908 1282.000
14.97936 1116.000
14.99964 1038.000
15.01992 869.000
15.04020 705.000
15.06048 619.000
15.08076 609.000
15.10104 556.000
15.12132 473.000
15.14160 499.000
15.16188 495.000
15.18216 428.000
15.20244 488.000
15.22272 502.000
15.24300 492.000
15.26328 474.000
15.28356 504.000
15.30384 480.000
15.32412 509.000
15.34440 443.000
15.36468 477.000
15.38496 489.000
15.40524 489.000
15.42552 461.000
15.44580 470.000
15.46608 522.000
15.48636 508.000
15.50664 528.000
15.52692 558.000
15.54720 548.000
15.56748 594.000
15.58776 646.000
15.60804 672.000
15.62832 714.000
15.64860 694.000
15.66888 711.000
15.68916 660.000
15.70944 643.000
15.72972 584.000
15.75000 648.000
15.77028 636.000
15.79056 637.000
15.81084 611.000
15.83112 620.000
15.85140 637.000
15.87168 654.000
15.89196 706.000
15.91224 680.000
15.93252 761.000
15.95280 857.000
15.97308 964.000
15.99336 1104.000
16.01364 1235.000
16.03392 1450.000
16.05420 1587.000
16.07448 1657.000
16.09476 1578.000
16.11504 1574.000
16.13532 1532.000
16.15560 1296.000
16.17588 1168.000
16.19616 1103.000
16.21644 1174.000
16.23672 1178.000
16.25700 1238.000
16.27729 1423.000
16.29757 1789.000
16.31785 2086.000
16.33813 2372.000
16.35841 2659.000
16.37869 3033.000
16.39897 3059.000
16.41925 3069.000
16.43953 2867.000
16.45981 2475.000
16.48009 2232.000
16.50037 1869.000
16.52065 1798.000
16.54093 1716.000
16.56121 1740.000
16.58149 1898.000
16.60177 2044.000
16.62205 2331.000
16.64233 2391.000
16.66261 2516.000
16.68289 2596.000
16.70317 2576.000
16.72345 2473.000
16.74373 2409.000
16.76401 2574.000
16.78429 2489.000
16.80457 2527.000
16.82485 2647.000
16.84513 2446.000
16.86541 2164.000
16.88569 1908.000
16.90597 1715.000
16.92625 1586.000
16.94653 1562.000
16.96681 1552.000
16.98709 1752.000
17.00737 1930.000
17.02765 2228.000
17.04793 2551.000
17.06821 3031.000
17.08849 3575.000
17.10877 3937.000
17.12905 3895.000
17.14933 3769.000
17.16961 3586.000
17.18989 3174.000
17.21017 2685.000
17.23045 2489.000
17.25073 2210.000
17.27101 2101.000
17.29129 2057.000
17.31157 2139.000
17.33185 2346.000
17.35213 2331.000
17.37241 2144.000
17.39269 2017.000
17.41297 1783.000
17.43325 1536.000
17.45353 1296.000
17.47381 1122.000
17.49409 1049.000
17.51437 1005.000
17.53465 1002.000
17.55493 1026.000
17.57521 1052.000
17.59549 1121.000
17.61577 1248.000
17.63605 1345.000
17.65633 1511.000
17.67661 1776.000
17.69689 2086.000
17.71717 2434.000
17.73745 2785.000
17.75773 3185.000
17.77801 3655.000
17.79829 3573.000
17.81857 3247.000
17.83885 2977.000
17.85913 2528.000
17.87941 2279.000
17.89969 2143.000
17.91997 2080.000
17.94025 2107.000
17.96053 2418.000
17.98081 2629.000
18.00109 2955.000
18.02137 3460.000
18.04165 3958.000
18.06193 4607.000
18.08221 5234.000
18.10249 5511.000
18.12277 5837.000
18.14305 5560.000
18.16333 5053.000
18.18362 4501.000
18.20390 3786.000
18.22418 3335.000
18.24446 3191.000
18.26474 2975.000
18.28502 2921.000
18.30530 2994.000
18.32558 3151.000
18.34586 3238.000
18.36614 3371.000
18.38642 3470.000
18.40670 3318.000
18.42698 3013.000
18.44726 2774.000
18.46754 2450.000
18.48782 2234.000
18.50810 1854.000
18.52838 1731.000
18.54866 1731.000
18.56894 1786.000
18.58922 1890.000
18.60950 1959.000
18.62978 2280.000
18.65006 2434.000
18.67034 2763.000
18.69062 2959.000
18.71090 3050.000
18.73118 2955.000
18.75146 2877.000
18.77174 2738.000
18.79202 2545.000
18.81230 2435.000
18.83258 2159.000
18.85286 2225.000
18.87314 2280.000
18.89342 2211.000
18.91370 2255.000
18.93398 2188.000
18.95426 2124.000
18.97454 2078.000
18.99482 1984.000
19.01510 1990.000
19.03538 1816.000
19.05566 1831.000
19.07594 1707.000
19.09622 1646.000
19.11650 1525.000
19.13678 1337.000
19.15706 1234.000
19.17734 1147.000
19.19762 1159.000
19.21790 1135.000
19.23818 1161.000
19.25846 1210.000
19.27874 1226.000
19.29902 1256.000
19.31930 1401.000
19.33958 1421.000
19.35986 1620.000
19.38014 1831.000
19.40042 2041.000
19.42070 2387.000
19.44098 2734.000
19.46126 3030.000
19.48154 3464.000
19.50182 3735.000
19.52210 4041.000
19.54238 4167.000
19.56266 3825.000
19.58294 3437.000
19.60322 3059.000
19.62350 2655.000
19.64378 2509.000
19.66406 2256.000
19.68434 2178.000
19.70462 2200.000
19.72490 2257.000
19.74518 2402.000
19.76546 2530.000
19.78574 2716.000
19.80602 2816.000
19.82630 2924.000
19.84658 3027.000
19.86686 3302.000
19.88714 3508.000
19.90742 3852.000
19.92770 4016.000
19.94798 4189.000
19.96826 4247.000
19.98854 4015.000
20.00882 3918.000
20.02910 3787.000
20.04938 3603.000
20.06966 3436.000
20.08995 3032.000
20.11023 2922.000
20.13051 2768.000
20.15079 2682.000
20.17107 2713.000
20.19135 2807.000
20.21163 2774.000
20.23191 2773.000
20.25219 2940.000
20.27247 2976.000
20.29275 3163.000
20.31303 3410.000
20.33331 3692.000
20.35359 4044.000
20.37387 4023.000
20.39415 3743.000
20.41443 3341.000
20.43471 2756.000
20.45499 2363.000
20.47527 2077.000
20.49555 1794.000
20.51583 1809.000
20.53611 1895.000
20.55639 1934.000
20.57667 2050.000
20.59695 2193.000
20.61723 2280.000
20.63751 2269.000
20.65779 2290.000
20.67807 2105.000
20.69835 1954.000
20.71863 1770.000
20.73891 1532.000
20.75919 1402.000
20.77947 1203.000
20.79975 1156.000
20.82003 1047.000
20.84031 1154.000
20.86059 1115.000
20.88087 1125.000
20.90115 1159.000
20.92143 1169.000
20.94171 1178.000
20.96199 1172.000
20.98227 1147.000
21.00255 1155.000
21.02283 1142.000
21.04311 1215.000
21.06339 1231.000
21.08367 1315.000
21.10395 1411.000
21.12423 1447.000
21.14451 1576.000
21.16479 1713.000
21.18507 1897.000
21.20535 2036.000
21.22563 2137.000
21.24591 2465.000
21.26619 2721.000
21.28647 2887.000
21.30675 3242.000
21.32703 3683.000
21.34731 4377.000
21.36759 5032.000
21.38787 5612.000
21.40815 6000.000
21.42843 6667.000
21.44871 6987.000
21.46899 7465.000
21.48927 7767.000
21.50955 8193.000
21.52983 8448.000
21.55011 8538.000
21.57039 8342.000
21.59067 8494.000
21.61095 8592.000
21.63123 8213.000
21.65151 8080.000
21.67179 7714.000
21.69207 7248.000
21.71235 6373.000
21.73263 5662.000
21.75291 4843.000
21.77319 3966.000
21.79347 3249.000
21.81375 2541.000
21.83403 2114.000
21.85431 1865.000
21.87459 1619.000
21.89487 1520.000
21.91515 1446.000
21.93543 1363.000
21.95571 1208.000
21.97599 1404.000
21.99628 1240.000
22.01656 1297.000
22.03684 1235.000
22.05712 1201.000
22.07740 1259.000
22.09768 1239.000
22.11796 1334.000
22.13824 1453.000
22.15852 1397.000
22.17880 1454.000
22.19908 1479.000
22.21936 1413.000
22.23964 1396.000
22.25992 1331.000
22.28020 1239.000
22.30048 1145.000
22.32076 1123.000
22.34104 1126.000
22.36132 1093.000
22.38160 1133.000
22.40188 1139.000
22.42216 1179.000
22.44244 1328.000
22.46272 1325.000
22.48300 1422.000
22.50328 1433.000
22.52356 1513.000
22.54384 1513.000
22.56412 1425.000
22.58440 1380.000
22.60468 1343.000
22.62496 1354.000
22.64524 1342.000
22.66552 1272.000
22.68580 1306.000
22.70608 1300.000
22.72636 1344.000
22.74664 1377.000
22.76692 1329.000
22.78720 1385.000
22.80748 1372.000
22.82776 1408.000
22.84804 1402.000
22.86832 1438.000
22.88860 1313.000
22.90888 1399.000
22.92916 1435.000
22.94944 1365.000
22.96972 1238.000
22.99000 1299.000
23.01028 1327.000
23.03056 1326.000
23.05084 1361.000
23.07112 1266.000
23.09140 1171.000
23.11168 1116.000
23.13196 1067.000
23.15224 974.000
23.17252 997.000
23.19280 955.000
23.21308 980.000
23.23336 961.000
23.25364 1046.000
23.27392 1090.000
23.29420 1165.000
23.31448 1281.000
23.33476 1405.000
23.35504 1473.000
23.37532 1602.000
23.39560 1782.000
23.41588 1998.000
23.43616 2233.000
23.45644 2337.000
23.47672 2535.000
23.49700 2728.000
23.51728 2820.000
23.53756 2920.000
23.55784 2909.000
23.57812 2815.000
23.59840 2652.000
23.61868 2361.000
23.63896 2130.000
23.65924 2089.000
23.67952 1882.000
23.69980 1695.000
23.72008 1601.000
23.74036 1509.000
23.76064 1514.000
23.78092 1435.000
23.80120 1442.000
23.82148 1413.000
23.84176 1508.000
23.86204 1401.000
23.88232 1360.000
23.90261 1244.000
23.92289 1270.000
23.94317 1170.000
23.96345 1150.000
23.98373 1179.000
24.00401 1112.000
24.02429 1123.000
24.04457 1100.000
24.06485 1093.000
24.08513 1198.000
24.10541 1155.000
24.12569 1137.000
24.14597 1227.000
24.16625 1221.000
24.18653 1248.000
24.20681 1226.000
24.22709 1242.000
24.24737 1259.000
24.26765 1295.000
24.28793 1348.000
24.30821 1456.000
24.32849 1536.000
24.34877 1681.000
24.36905 1775.000
24.38933 1901.000
24.40961 1930.000
24.42989 2069.000
24.45017 2057.000
24.47045 1941.000
24.49073 1619.000
24.51101 1550.000
24.53129 1325.000
24.55157 1214.000
24.57185 1117.000
24.59213 1111.000
24.61241 1075.000
24.63269 1023.000
24.65297 1100.000
24.67325 1174.000
24.69353 1225.000
24.71381 1286.000
24.73409 1413.000
24.75437 1405.000
24.77465 1390.000
24.79493 1377.000
24.81521 1339.000
24.83549 1221.000
24.85577 1154.000
24.87605 1062.000
24.89633 1059.000
24.91661 963.000
24.93689 939.000
24.95717 920.000
24.97745 986.000
24.99773 931.000
25.01801 952.000
25.03829 1054.000
25.05857 1118.000
25.07885 1169.000
25.09913 1240.000
25.11941 1360.000
25.13969 1472.000
25.15997 1554.000
25.18025 1619.000
25.20053 1680.000
25.22081 1831.000
25.24109 1925.000
25.26137 1931.000
25.28165 2008.000
25.30193 1980.000
25.32221 1984.000
25.34249 1879.000
25.36277 1860.000
25.38305 1849.000
25.40333 1796.000
25.42361 1699.000
25.44389 1655.000
25.46417 1629.000
25.48445 1551.000
25.50473 1433.000
25.52501 1403.000
25.54529 1263.000
25.56557 1208.000
25.58585 1076.000
25.60613 1042.000
25.62641 963.000
25.64669 911.000
25.66697 890.000
25.68725 944.000
25.70753 828.000
25.72781 899.000
25.74809 972.000
25.76837 955.000
25.78865 996.000
25.80893 1043.000
25.82922 1082.000
25.84950 1106.000
25.86978 1121.000
25.89006 1106.000
25.91034 1088.000
25.93062 1196.000
25.95090 1322.000
25.97118 1377.000
25.99146 1482.000
26.01174 1570.000
26.03202 1800.000
26.05230 1725.000
26.07258 1786.000
26.09286 1818.000
26.11314 1834.000
26.13342 1911.000
26.15370 1762.000
26.17398 1690.000
26.19426 1548.000
26.21454 1425.000
26.23482 1359.000
26.25510 1311.000
26.27538 1264.000
26.29566 1246.000
26.31594 1293.000
26.33622 1296.000
26.35650 1252.000
26.37678 1214.000
26.39706 1348.000
26.41734 1351.000
26.43762 1343.000
26.45790 1378.000
26.47818 1357.000
26.49846 1430.000
26.51874 1446.000
26.53902 1503.000
26.55930 1464.000
26.57958 1465.000
26.59986 1426.000
26.62014 1393.000
26.64042 1323.000
26.66070 1244.000
26.68098 1314.000
26.70126 1272.000
26.72154 1204.000
26.74182 1163.000
26.76210 1146.000
26.78238 1181.000
26.80266 1117.000
26.82294 1208.000
26.84322 1218.000
26.86350 1267.000
26.88378 1346.000
26.90406 1355.000
26.92434 1420.000
26.94462 1592.000
26.96490 1485.000
26.98518 1457.000
27.00546 1503.000
27.02574 1450.000
27.04602 1418.000
27.06630 1312.000
27.08658 1262.000
27.10686 1278.000
27.12714 1266.000
27.14742 1228.000
27.16770 1155.000
27.18798 1094.000
27.20826 1154.000
27.22854 1087.000
27.24882 1042.000
27.26910 1008.000
27.28938 1031.000
27.30966 1040.000
27.32994 983.000
27.35022 1087.000
27.37050 1074.000
27.39078 1117.000
27.41106 1093.000
27.43134 1156.000
27.45162 1168.000
27.47190 1203.000
27.49218 1215.000
27.51246 1208.000
27.53274 1155.000
27.55302 1121.000
27.57330 1075.000
27.59358 994.000
27.61386 907.000
27.63414 833.000
27.65442 820.000
27.67470 742.000
27.69498 648.000
27.71526 622.000
27.73555 656.000
27.75583 644.000
27.77611 595.000
27.79639 595.000
27.81667 585.000
27.83695 564.000
27.85723 571.000
27.87751 587.000
27.89779 579.000
27.91807 590.000
27.93835 562.000
27.95863 577.000
27.97891 544.000
27.99919 585.000
28.01947 582.000
28.03975 566.000
28.06003 597.000
28.08031 603.000
28.10059 615.000
28.12087 583.000
28.14115 623.000
28.16143 627.000
28.18171 596.000
28.20199 638.000
28.22227 645.000
28.24255 658.000
28.26283 767.000
28.28311 756.000
28.30339 820.000
28.32367 796.000
28.34395 823.000
28.36423 846.000
28.38451 1009.000
28.40479 954.000
28.42507 1090.000
28.44535 1045.000
28.46563 1180.000
28.48591 1210.000
28.50619 1278.000
28.52647 1310.000
28.54675 1373.000
28.56703 1383.000
28.58731 1388.000
28.60759 1517.000
28.62787 1466.000
28.64815 1376.000
28.66843 1276.000
28.68871 1202.000
28.70899 1135.000
28.72927 1122.000
28.74955 1000.000
28.76983 999.000
28.79011 996.000
28.81039 992.000
28.83067 883.000
28.85095 900.000
28.87123 883.000
28.89151 826.000
28.91179 834.000
28.93207 839.000
28.95235 826.000
28.97263 882.000
28.99291 885.000
29.01319 896.000
29.03347 919.000
29.05375 973.000
29.07403 973.000
29.09431 1019.000
29.11459 1002.000
29.13487 995.000
29.15515 973.000
29.17543 954.000
29.19571 922.000
29.21599 828.000
29.23627 857.000
29.25655 847.000
29.27683 839.000
29.29711 803.000
29.31739 797.000
29.33767 827.000
29.35795 888.000
29.37823 850.000
29.39851 859.000
29.41879 844.000
29.43907 834.000
29.45935 770.000
29.47963 804.000
29.49991 760.000
29.52019 797.000
29.54047 774.000
29.56075 839.000
29.58103 823.000
29.60131 832.000
29.62159 894.000
29.64188 886.000
29.66216 841.000
29.68244 876.000
29.70272 980.000
29.72300 1031.000
29.74328 1073.000
29.76356 1086.000
29.78384 1148.000
29.80412 1203.000
29.82440 1238.000
29.84468 1233.000
29.86496 1172.000
29.88524 1192.000
29.90552 1145.000
29.92580 1182.000
29.94608 1112.000
29.96636 1193.000
29.98664 1118.000
30.00692 1166.000
30.02720 1106.000
30.04748 1112.000
30.06776 1027.000
30.08804 1044.000
30.10832 1011.000
30.12860 1001.000
30.14888 983.000
30.16916 971.000
30.18944 865.000
30.20972 806.000
30.23000 836.000
30.25028 814.000
30.27056 856.000
30.29084 769.000
30.31112 828.000
30.33140 750.000
30.35168 829.000
30.37196 791.000
30.39224 805.000
30.41252 796.000
30.43280 857.000
30.45308 794.000
30.47336 888.000
30.49364 815.000
30.51392 728.000
30.53420 697.000
30.55448 676.000
30.57476 625.000
30.59504 637.000
30.61532 578.000
30.63560 555.000
30.65588 544.000
30.67616 571.000
30.69644 524.000
30.71672 507.000
30.73700 549.000
30.75728 617.000
30.77756 550.000
30.79784 576.000
30.81812 563.000
30.83840 528.000
30.85868 597.000
30.87896 592.000
30.89924 608.000
30.91952 605.000
30.93980 617.000
30.96008 653.000
30.98036 620.000
31.00064 630.000
31.02092 678.000
31.04120 685.000
31.06148 772.000
31.08176 782.000
31.10204 735.000
31.12232 792.000
31.14260 790.000
31.16288 759.000
31.18316 723.000
31.20344 766.000
31.22372 735.000
31.24400 802.000
31.26428 756.000
31.28456 787.000
31.30484 705.000
31.32512 715.000
31.34540 698.000
31.36568 718.000
31.38596 659.000
31.40624 698.000
31.42652 677.000
31.44680 717.000
31.46708 706.000
31.48736 731.000
31.50764 722.000
31.52792 753.000
31.54821 726.000
31.56849 800.000
31.58877 804.000
31.60905 803.000
31.62933 836.000
31.64961 868.000
31.66989 935.000
31.69017 912.000
31.71045 842.000
31.73073 859.000
31.75101 778.000
31.77129 880.000
31.79157 849.000
31.81185 823.000
31.83213 788.000
31.85241 787.000
31.87269 747.000
31.89297 775.000
31.91325 794.000
31.93353 786.000
31.95381 766.000
31.97409 775.000
31.99437 802.000
32.01465 795.000
32.03493 812.000
32.05521 794.000
32.07549 716.000
32.09577 801.000
32.11605 760.000
32.13633 714.000
32.15661 729.000
32.17689 654.000
32.19717 691.000
32.21745 687.000
32.23773 612.000
32.25801 616.000
32.27829 644.000
32.29857 577.000
32.31885 642.000
32.33913 653.000
32.35941 629.000
32.37969 635.000
32.39997 579.000
32.42025 594.000
32.44053 613.000
32.46081 582.000
32.48109 597.000
32.50137 534.000
32.52165 498.000
32.54193 509.000
32.56221 546.000
32.58249 542.000
32.60277 535.000
32.62305 555.000
32.64333 541.000
32.66361 557.000
32.68389 537.000
32.70417 560.000
32.72445 550.000
32.74473 557.000
32.76501 561.000
32.78529 598.000
32.80557 595.000
32.82585 578.000
32.84613 531.000
32.86641 568.000
32.88669 527.000
32.90697 585.000
32.92725 620.000
32.94753 581.000
32.96781 647.000
32.98809 634.000
33.00837 580.000
33.02865 635.000
33.04893 751.000
33.06921 690.000
33.08949 702.000
33.10977 739.000
33.13005 613.000
33.15033 687.000
33.17061 698.000
33.19089 692.000
33.21117 716.000
33.23145 678.000
33.25173 643.000
33.27201 701.000
33.29229 696.000
33.31257 733.000
33.33285 742.000
33.35313 672.000
33.37341 741.000
33.39369 778.000
33.41397 728.000
33.43425 710.000
33.45454 654.000
33.47482 696.000
33.49510 676.000
33.51538 585.000
33.53566 615.000
33.55594 649.000
33.57622 626.000
33.59650 639.000
33.61678 599.000
33.63706 588.000
33.65734 577.000
33.67762 592.000
33.69790 583.000
33.71818 560.000
33.73846 561.000
33.75874 545.000
33.77902 517.000
33.79930 560.000
33.81958 579.000
33.83986 539.000
33.86014 580.000
33.88042 556.000
33.90070 574.000
33.92098 578.000
33.94126 567.000
33.96154 584.000
33.98182 619.000
34.00210 567.000
34.02238 607.000
34.04266 592.000
34.06294 601.000
34.08322 602.000
34.10350 612.000
34.12378 573.000
34.14406 604.000
34.16434 632.000
34.18462 610.000
34.20490 621.000
34.22518 643.000
34.24546 663.000
34.26574 618.000
34.28602 658.000
34.30630 667.000
34.32658 666.000
34.34686 656.000
34.36714 629.000
34.38742 715.000
34.40770 702.000
34.42798 768.000
34.44826 697.000
34.46854 763.000
34.48882 767.000
34.50910 871.000
34.52938 892.000
34.54966 958.000
34.56994 968.000
34.59022 960.000
34.61050 1008.000
34.63078 943.000
34.65106 983.000
34.67134 880.000
34.69162 848.000
34.71190 859.000
34.73218 852.000
34.75246 871.000
34.77274 823.000
34.79302 795.000
34.81330 848.000
34.83358 779.000
34.85386 799.000
34.87414 809.000
34.89442 832.000
34.91470 810.000
34.93498 870.000
34.95526 892.000
34.97554 867.000
34.99582 915.000
35.01610 930.000
35.03638 948.000
35.05666 937.000
35.07694 838.000
35.09722 768.000
35.11750 707.000
35.13778 766.000
35.15806 759.000
35.17834 770.000
35.19862 692.000
35.21890 683.000
35.23918 656.000
35.25946 679.000
35.27974 696.000
35.30002 691.000
35.32030 701.000
35.34058 666.000
35.36087 694.000
35.38115 648.000
35.40143 600.000
35.42171 573.000
35.44199 625.000
35.46227 605.000
35.48255 621.000
35.50283 550.000
35.52311 560.000
35.54339 588.000
35.56367 616.000
35.58395 577.000
35.60423 602.000
35.62451 568.000
35.64479 600.000
35.66507 569.000
35.68535 534.000
35.70563 557.000
35.72591 522.000
35.74619 473.000
35.76647 551.000
35.78675 521.000
35.80703 496.000
35.82731 494.000
35.84759 508.000
35.86787 523.000
35.88815 534.000
35.90843 515.000
35.92871 497.000
35.94899 511.000
35.96927 560.000
35.98955 514.000
36.00983 552.000
36.03011 551.000
36.05039 581.000
36.07067 605.000
36.09095 655.000
36.11123 635.000
36.13151 661.000
36.15179 661.000
36.17207 712.000
36.19235 672.000
36.21263 668.000
36.23291 724.000
36.25319 706.000
36.27347 713.000
36.29375 714.000
36.31403 723.000
36.33431 732.000
36.35459 669.000
36.37487 706.000
36.39515 713.000
36.41543 705.000
36.43571 721.000
36.45599 673.000
36.47627 688.000
36.49655 692.000
36.51683 748.000
36.53711 680.000
36.55739 666.000
36.57767 721.000
36.59795 670.000
36.61823 749.000
36.63851 704.000
36.65879 711.000
36.67907 737.000
36.69935 800.000
36.71963 715.000
36.73991 810.000
36.76019 787.000
36.78047 780.000
36.80075 748.000
36.82103 777.000
36.84131 734.000
36.86159 698.000
36.88187 718.000
36.90215 712.000
36.92243 702.000
36.94271 655.000
36.96299 623.000
36.98327 669.000
37.00355 658.000
37.02383 625.000
37.04411 644.000
37.06439 621.000
37.08467 621.000
37.10495 616.000
37.12523 645.000
37.14551 676.000
37.16579 665.000
37.18607 635.000
37.20635 619.000
37.22663 614.000
37.24691 650.000
37.26720 677.000
37.28748 661.000
37.30776 664.000
37.32804 602.000
37.34832 593.000
37.36860 607.000
37.38888 609.000
37.40916 558.000
37.42944 552.000
37.44972 575.000
37.47000 575.000
37.49028 532.000
37.51056 562.000
37.53084 533.000
37.55112 606.000
37.57140 523.000
37.59168 537.000
37.61196 545.000
37.63224 520.000
37.65252 523.000
37.67280 549.000
37.69308 543.000
37.71336 569.000
37.73364 575.000
37.75392 567.000
37.77420 612.000
37.79448 577.000
37.81476 608.000
37.83504 636.000
37.85532 586.000
37.87560 617.000
37.89588 636.000
37.91616 617.000
37.93644 665.000
37.95672 705.000
37.97700 682.000
37.99728 719.000
38.01756 681.000
38.03784 692.000
38.05812 677.000
38.07840 673.000
38.09868 698.000
38.11896 630.000
38.13924 605.000
38.15952 615.000
38.17980 607.000
38.20008 614.000
38.22036 609.000
38.24064 571.000
38.26092 568.000
38.28120 572.000
38.30148 598.000
38.32176 565.000
38.34204 573.000
38.36232 587.000
38.38260 616.000
38.40288 640.000
38.42316 603.000
38.44344 595.000
38.46372 624.000
38.48400 593.000
38.50428 634.000
38.52456 599.000
38.54484 556.000
38.56512 610.000
38.58540 536.000
38.60568 570.000
38.62596 570.000
38.64624 573.000
38.66652 524.000
38.68680 545.000
38.70708 536.000
38.72736 518.000
38.74764 541.000
38.76792 556.000
38.78820 516.000
38.80848 512.000
38.82876 483.000
38.84904 532.000
38.86932 470.000
38.88960 561.000
38.90988 542.000
38.93016 594.000
38.95044 573.000
38.97072 583.000
38.99100 535.000
39.01128 554.000
39.03156 583.000
39.05184 616.000
39.07212 588.000
39.09240 546.000
39.11268 578.000
39.13296 595.000
39.15324 610.000
39.17353 547.000
39.19381 572.000
39.21409 539.000
39.23437 594.000
39.25465 525.000
39.27493 533.000
39.29521 575.000
39.31549 542.000
39.33577 560.000
39.35605 560.000
39.37633 552.000
39.39661 548.000
39.41689 563.000
39.43717 586.000
39.45745 556.000
39.47773 586.000
39.49801 617.000
39.51829 622.000
39.53857 594.000
39.55885 667.000
39.57913 625.000
39.59941 623.000
39.61969 620.000
39.63997 693.000
39.66025 648.000
39.68053 641.000
39.70081 648.000
39.72109 618.000
39.74137 576.000
39.76165 631.000
39.78193 639.000
39.80221 593.000
39.82249 571.000
39.84277 612.000
39.86305 580.000
39.88333 598.000
39.90361 570.000
39.92389 604.000
39.94417 575.000
39.96445 627.000
39.98473 632.000
40.00501 626.000
40.02529 616.000
40.04557 610.000
40.06585 642.000
40.08613 656.000
40.10641 670.000
40.12669 681.000
40.14697 699.000
40.16725 715.000
40.18753 668.000
40.20781 750.000
40.22809 754.000
40.24837 746.000
40.26865 767.000
40.28893 713.000
40.30921 745.000
40.32949 685.000
40.34977 763.000
40.37005 740.000
40.39033 721.000
40.41061 757.000
40.43089 753.000
40.45117 739.000
40.47145 743.000
40.49173 711.000
40.51201 750.000
40.53229 764.000
40.55257 712.000
40.57285 747.000
40.59313 619.000
40.61341 673.000
40.63369 661.000
40.65397 619.000
40.67425 638.000
40.69453 599.000
40.71481 591.000
40.73509 555.000
40.75537 548.000
40.77565 552.000
40.79593 539.000
40.81621 528.000
40.83649 491.000
40.85677 510.000
40.87705 541.000
40.89733 499.000
40.91761 496.000
40.93789 567.000
40.95817 528.000
40.97845 578.000
40.99873 507.000
41.01901 555.000
41.03929 550.000
41.05957 588.000
41.07986 534.000
41.10014 531.000
41.12042 526.000
41.14070 514.000
41.16098 573.000
41.18126 567.000
41.20154 602.000
41.22182 532.000
41.24210 609.000
41.26238 566.000
41.28266 571.000
41.30294 588.000
41.32322 607.000
41.34350 610.000
41.36378 600.000
41.38406 604.000
41.40434 615.000
41.42462 595.000
41.44490 595.000
41.46518 627.000
41.48546 650.000
41.50574 615.000
41.52602 639.000
41.54630 615.000
41.56658 611.000
41.58686 614.000
41.60714 618.000
41.62742 664.000
41.64770 612.000
41.66798 637.000
41.68826 660.000
41.70854 678.000
41.72882 668.000
41.74910 674.000
41.76938 665.000
41.78966 674.000
41.80994 647.000
41.83022 646.000
41.85050 649.000
41.87078 615.000
41.89106 617.000
41.91134 622.000
41.93162 604.000
41.95190 542.000
41.97218 537.000
41.99246 503.000
42.01274 490.000
42.03302 520.000
42.05330 514.000
42.07358 467.000
42.09386 472.000
42.11414 490.000
42.13442 492.000
42.15470 430.000
42.17498 445.000
42.19526 448.000
42.21554 485.000
42.23582 494.000
42.25610 469.000
42.27638 484.000
42.29666 494.000
42.31694 490.000
42.33722 489.000
42.35750 500.000
42.37778 465.000
42.39806 505.000
42.41834 473.000
42.43862 483.000
42.45890 444.000
42.47918 457.000
42.49946 477.000
42.51974 471.000
42.54002 498.000
42.56030 460.000
42.58058 501.000
42.60086 482.000
42.62114 513.000
42.64142 488.000
42.66170 428.000
42.68198 464.000
42.70226 480.000
42.72254 474.000
42.74282 508.000
42.76310 454.000
42.78338 489.000
42.80366 499.000
42.82394 506.000
42.84422 439.000
42.86450 478.000
42.88478 447.000
42.90506 491.000
42.92534 513.000
42.94562 473.000
42.96590 516.000
42.98619 473.000
43.00647 501.000
43.02675 484.000
43.04703 507.000
43.06731 491.000
43.08759 553.000
43.10787 482.000
43.12815 527.000
43.14843 550.000
43.16871 579.000
43.18899 591.000
43.20927 578.000
43.22955 630.000
43.24983 570.000
43.27011 582.000
43.29039 629.000
43.31067 634.000
43.33095 586.000
43.35123 617.000
43.37151 621.000
43.39179 594.000
43.41207 609.000
43.43235 602.000
43.45263 620.000
43.47291 608.000
43.49319 579.000
43.51347 614.000
43.53375 598.000
43.55403 599.000
43.57431 533.000
43.59459 619.000
43.61487 647.000
43.63515 598.000
43.65543 612.000
43.67571 637.000
43.69599 646.000
43.71627 669.000
43.73655 614.000
43.75683 619.000
43.77711 640.000
43.79739 628.000
43.81767 677.000
43.83795 624.000
43.85823 645.000
43.87851 629.000
43.89879 580.000
43.91907 645.000
43.93935 662.000
43.95963 647.000
43.97991 661.000
44.00019 622.000
44.02047 662.000
44.04075 624.000
44.06103 636.000
44.08131 606.000
44.10159 590.000
44.12187 602.000
44.14215 590.000
44.16243 606.000
44.18271 591.000
44.20299 618.000
44.22327 627.000
44.24355 552.000
44.26383 591.000
44.28411 594.000
44.30439 588.000
44.32467 581.000
44.34495 587.000
44.36523 515.000
44.38551 585.000
44.40579 573.000
44.42607 564.000
44.44635 563.000
44.46663 558.000
44.48691 529.000
44.50719 558.000
44.52747 566.000
44.54775 577.000
44.56803 532.000
44.58831 526.000
44.60859 548.000
44.62887 599.000
44.64915 565.000
44.66943 543.000
44.68971 536.000
44.70999 569.000
44.73027 537.000
44.75055 558.000
44.77083 568.000
44.79111 555.000
44.81139 581.000
44.83167 556.000
44.85195 552.000
44.87223 566.000
44.89251 568.000
44.91280 516.000
44.93308 551.000
44.95336 539.000
44.97364 528.000
44.99392 576.000
45.01420 503.000
45.03448 553.000
45.05476 522.000
45.07504 540.000
45.09532 521.000
45.11560 486.000
45.13588 530.000
45.15616 512.000
45.17644 560.000
45.19672 528.000
45.21700 508.000
45.23728 547.000
45.25756 458.000
45.27784 537.000
45.29812 509.000
45.31840 525.000
45.33868 520.000
45.35896 500.000
45.37924 525.000
45.39952 499.000
45.41980 503.000
45.44008 505.000
45.46036 525.000
45.48064 520.000
45.50092 503.000
45.52120 516.000
45.54148 483.000
45.56176 553.000
45.58204 525.000
45.60232 563.000
45.62260 511.000
45.64288 580.000
45.66316 516.000
45.68344 491.000
45.70372 545.000
45.72400 501.000
45.74428 507.000
45.76456 543.000
45.78484 486.000
45.80512 546.000
45.82540 512.000
45.84568 545.000
45.86596 519.000
45.88624 511.000
45.90652 483.000
45.92680 498.000
45.94708 546.000
45.96736 495.000
45.98764 479.000
46.00792 497.000
46.02820 457.000
46.04848 503.000
46.06876 502.000
46.08904 503.000
46.10932 499.000
46.12960 523.000
46.14988 513.000
46.17016 517.000
46.19044 550.000
46.21072 515.000
46.23100 514.000
46.25128 484.000
46.27156 527.000
46.29184 548.000
46.31212 527.000
46.33240 525.000
46.35268 528.000
46.37296 555.000
46.39324 549.000
46.41352 573.000
46.43380 571.000
46.45408 568.000
46.47436 570.000
46.49464 566.000
46.51492 566.000
46.53520 581.000
46.55548 584.000
46.57576 577.000
46.59604 569.000
46.61632 601.000
46.63660 560.000
46.65688 541.000
46.67716 526.000
46.69744 563.000
46.71772 565.000
46.73800 561.000
46.75828 572.000
46.77856 532.000
46.79884 480.000
46.81913 529.000
46.83941 492.000
46.85969 508.000
46.87997 518.000
46.90025 499.000
46.92053 493.000
46.94081 516.000
46.96109 516.000
46.98137 517.000
47.00165 503.000
47.02193 502.000
47.04221 499.000
47.06249 521.000
47.08277 454.000
47.10305 516.000
47.12333 519.000
47.14361 507.000
47.16389 529.000
47.18417 536.000
47.20445 487.000
47.22473 563.000
47.24501 509.000
47.26529 501.000
47.28557 532.000
47.30585 548.000
47.32613 548.000
47.34641 565.000
47.36669 574.000
47.38697 561.000
47.40725 564.000
47.42753 565.000
47.44781 555.000
47.46809 570.000
47.48837 530.000
47.50865 548.000
47.52893 524.000
47.54921 527.000
47.56949 546.000
47.58977 517.000
47.61005 525.000
47.63033 530.000
47.65061 561.000
47.67089 481.000
47.69117 530.000
47.71145 504.000
47.73173 500.000
47.75201 500.000
47.77229 524.000
47.79257 517.000
47.81285 500.000
47.83313 492.000
47.85341 497.000
47.87369 520.000
47.89397 472.000
47.91425 498.000
47.93453 526.000
47.95481 465.000
47.97509 528.000
47.99537 486.000
48.01565 539.000
48.03593 523.000
48.05621 486.000
48.07649 505.000
48.09677 524.000
48.11705 442.000
48.13733 495.000
48.15761 447.000
48.17789 459.000
48.19817 439.000
48.21845 447.000
48.23873 430.000
48.25901 450.000
48.27929 478.000
48.29957 491.000
48.31985 422.000
48.34013 467.000
48.36041 475.000
48.38069 444.000
48.40097 473.000
48.42125 456.000
48.44153 424.000
48.46181 440.000
48.48209 457.000
48.50237 430.000
48.52265 458.000
48.54293 461.000
48.56321 439.000
48.58349 479.000
48.60377 448.000
48.62405 431.000
48.64433 416.000
48.66461 441.000
48.68489 458.000
48.70517 407.000
48.72546 453.000
48.74574 408.000
48.76602 451.000
48.78630 427.000
48.80658 454.000
48.82686 421.000
48.84714 441.000
48.86742 456.000
48.88770 427.000
48.90798 453.000
48.92826 448.000
48.94854 425.000
48.96882 437.000
48.98910 459.000
49.00938 434.000
49.02966 418.000
49.04994 465.000
49.07022 468.000
49.09050 444.000
49.11078 449.000
49.13106 447.000
49.15134 418.000
49.17162 426.000
49.19190 453.000
49.21218 450.000
49.23246 477.000
49.25274 443.000
49.27302 461.000
49.29330 443.000
49.31358 465.000
49.33386 436.000
49.35414 474.000
49.37442 462.000
49.39470 426.000
49.41498 475.000
49.43526 409.000
49.45554 415.000
49.47582 450.000
49.49610 449.000
49.51638 434.000
49.53666 432.000
49.55694 456.000
49.57722 429.000
49.59750 397.000
49.61778 434.000
49.63806 464.000
49.65834 412.000
49.67862 436.000
49.69890 444.000
49.71918 421.000
49.73946 473.000
49.75974 486.000
49.78002 441.000
49.80030 404.000
49.82058 451.000
49.84086 465.000
49.86114 458.000
49.88142 472.000
49.90170 492.000
49.92198 417.000
49.94226 440.000
49.96254 437.000
49.98282 455.000
50.00310 439.000
