5.00155 908.000
5.02183 820.000
5.04211 828.000
5.06239 793.000
5.08267 789.000
5.10295 779.000
5.12323 815.000
5.14351 750.000
5.16379 790.000
5.18407 698.000
5.20435 735.000
5.22463 810.000
5.24491 770.000
5.26519 748.000
5.28547 726.000
5.30575 725.000
5.32603 656.000
5.34631 666.000
5.36659 727.000
5.38687 649.000
5.40715 733.000
5.42743 693.000
5.44771 698.000
5.46799 633.000
5.48827 658.000
5.50855 627.000
5.52883 625.000
5.54911 670.000
5.56939 595.000
5.58967 599.000
5.60995 610.000
5.63023 537.000
5.65051 638.000
5.67079 603.000
5.69107 606.000
5.71135 563.000
5.73163 581.000
5.75191 550.000
5.77219 568.000
5.79247 586.000
5.81275 548.000
5.83303 598.000
5.85331 535.000
5.87359 585.000
5.89387 539.000
5.91415 554.000
5.93443 534.000
5.95471 544.000
5.97499 518.000
5.99527 552.000
6.01555 508.000
6.03583 522.000
6.05611 458.000
6.07639 534.000
6.09667 490.000
6.11695 492.000
6.13723 497.000
6.15751 502.000
6.17779 480.000
6.19807 510.000
6.21835 542.000
6.23863 528.000
6.25891 551.000
6.27919 528.000
6.29947 514.000
6.31975 485.000
6.34003 517.000
6.36031 521.000
6.38059 545.000
6.40087 493.000
6.42115 515.000
6.44143 587.000
6.46171 631.000
6.48199 630.000
6.50227 668.000
6.52255 653.000
6.54283 755.000
6.56311 876.000
6.58339 1021.000
6.60367 1108.000
6.62395 1309.000
6.64423 1635.000
6.66451 1917.000
6.68479 2533.000
6.70507 2950.000
6.72536 3596.000
6.74564 4246.000
6.76592 4706.000
6.78620 4787.000
6.80648 4867.000
6.82676 4434.000
6.84704 3764.000
6.86732 2617.000
6.88760 1835.000
6.90788 1343.000
6.92816 1035.000
6.94844 768.000
6.96872 686.000
6.98900 652.000
7.00928 530.000
7.02956 517.000
7.04984 474.000
7.07012 572.000
7.09040 515.000
7.11068 491.000
7.13096 463.000
7.15124 455.000
7.17152 482.000
7.19180 444.000
7.21208 422.000
7.23236 448.000
7.25264 412.000
7.27292 433.000
7.29320 428.000
7.31348 429.000
7.33376 403.000
7.35404 413.000
7.37432 445.000
7.39460 399.000
7.41488 443.000
7.43516 452.000
7.45544 404.000
7.47572 411.000
7.49600 401.000
7.51628 400.000
7.53656 405.000
7.55684 429.000
7.57712 379.000
7.59740 426.000
7.61768 395.000
7.63796 362.000
7.65824 403.000
7.67852 408.000
7.69880 385.000
7.71908 392.000
7.73936 402.000
7.75964 398.000
7.77992 377.000
7.80020 432.000
7.82048 448.000
7.84076 420.000
7.86104 421.000
7.88132 435.000
7.90160 403.000
7.92188 426.000
7.94216 416.000
7.96244 423.000
7.98272 442.000
8.00300 412.000
8.02328 469.000
8.04356 497.000
8.06384 561.000
8.08412 632.000
8.10440 658.000
8.12468 725.000
8.14496 887.000
8.16524 1065.000
8.18552 1155.000
8.20580 1376.000
8.22608 1695.000
8.24636 2059.000
8.26664 2451.000
8.28692 3213.000
8.30720 4007.000
8.32748 4629.000
8.34776 5121.000
8.36804 4950.000
8.38832 4365.000
8.40860 3319.000
8.42888 2365.000
8.44916 1638.000
8.46944 1207.000
8.48972 955.000
8.51000 751.000
8.53028 718.000
8.55056 631.000
8.57084 618.000
8.59112 646.000
8.61140 578.000
8.63168 600.000
8.65197 553.000
8.67225 530.000
8.69253 468.000
8.71281 412.000
8.73309 429.000
8.75337 439.000
8.77365 371.000
8.79393 397.000
8.81421 419.000
8.83449 407.000
8.85477 399.000
8.87505 387.000
8.89533 372.000
8.91561 325.000
8.93589 395.000
8.95617 387.000
8.97645 381.000
8.99673 372.000
9.01701 378.000
9.03729 372.000
9.05757 334.000
9.07785 380.000
9.09813 358.000
9.11841 363.000
9.13869 365.000
9.15897 358.000
9.17925 339.000
9.19953 398.000
9.21981 326.000
9.24009 372.000
9.26037 360.000
9.28065 346.000
9.30093 382.000
9.32121 364.000
9.34149 384.000
9.36177 350.000
9.38205 367.000
9.40233 382.000
9.42261 380.000
9.44289 383.000
9.46317 384.000
9.48345 371.000
9.50373 381.000
9.52401 372.000
9.54429 374.000
9.56457 353.000
9.58485 384.000
9.60513 363.000
9.62541 359.000
9.64569 357.000
9.66597 325.000
9.68625 370.000
9.70653 331.000
9.72681 362.000
9.74709 332.000
9.76737 368.000
9.78765 401.000
9.80793 417.000
9.82821 410.000
9.84849 414.000
9.86877 370.000
9.88905 386.000
9.90933 369.000
9.92961 356.000
9.94989 340.000
9.97017 374.000
9.99045 337.000
10.01073 342.000
10.03101 346.000
10.05129 379.000
10.07157 318.000
10.09185 350.000
10.11213 299.000
10.13241 351.000
10.15269 314.000
10.17297 366.000
10.19325 357.000
10.21353 377.000
10.23381 324.000
10.25409 333.000
10.27437 336.000
10.29465 344.000
10.31493 374.000
10.33521 371.000
10.35549 410.000
10.37577 398.000
10.39605 463.000
10.41633 506.000
10.43661 586.000
10.45689 650.000
10.47717 748.000
10.49745 845.000
10.51773 878.000
10.53801 998.000
10.55830 971.000
10.57858 811.000
10.59886 726.000
10.61914 612.000
10.63942 468.000
10.65970 419.000
10.67998 400.000
10.70026 405.000
10.72054 376.000
10.74082 365.000
10.76110 343.000
10.78138 335.000
10.80166 379.000
10.82194 377.000
10.84222 345.000
10.86250 388.000
10.88278 362.000
10.90306 360.000
10.92334 364.000
10.94362 338.000
10.96390 332.000
10.98418 339.000
11.00446 330.000
11.02474 312.000
11.04502 297.000
11.06530 299.000
11.08558 330.000
11.10586 296.000
11.12614 325.000
11.14642 291.000
11.16670 305.000
11.18698 309.000
11.20726 311.000
11.22754 331.000
11.24782 310.000
11.26810 322.000
11.28838 343.000
11.30866 338.000
11.32894 282.000
11.34922 291.000
11.36950 260.000
11.38978 312.000
11.41006 259.000
11.43034 309.000
11.45062 299.000
11.47090 320.000
11.49118 352.000
11.51146 326.000
11.53174 288.000
11.55202 284.000
11.57230 302.000
11.59258 290.000
11.61286 303.000
11.63314 347.000
11.65342 304.000
11.67370 302.000
11.69398 293.000
11.71426 329.000
11.73454 292.000
11.75482 293.000
11.77510 306.000
11.79538 311.000
11.81566 275.000
11.83594 302.000
11.85622 307.000
11.87650 308.000
11.89678 287.000
11.91706 291.000
11.93734 289.000
11.95762 343.000
11.97790 290.000
11.99818 296.000
12.01846 293.000
12.03874 344.000
12.05902 290.000
12.07930 315.000
12.09958 307.000
12.11986 309.000
12.14014 288.000
12.16042 354.000
12.18070 289.000
12.20098 298.000
12.22126 307.000
12.24154 306.000
12.26182 273.000
12.28210 298.000
12.30238 272.000
12.32266 302.000
12.34294 288.000
12.36322 282.000
12.38350 307.000
12.40378 319.000
12.42406 292.000
12.44434 321.000
12.46463 287.000
12.48491 299.000
12.50519 307.000
12.52547 288.000
12.54575 314.000
12.56603 312.000
12.58631 278.000
12.60659 322.000
12.62687 307.000
12.64715 303.000
12.66743 325.000
12.68771 311.000
12.70799 316.000
12.72827 295.000
12.74855 327.000
12.76883 301.000
12.78911 342.000
12.80939 314.000
12.82967 301.000
12.84995 354.000
12.87023 315.000
12.89051 307.000
12.91079 342.000
12.93107 323.000
12.95135 343.000
12.97163 298.000
12.99191 372.000
13.01219 360.000
13.03247 369.000
13.05275 368.000
13.07303 478.000
13.09331 525.000
13.11359 549.000
13.13387 637.000
13.15415 710.000
13.17443 698.000
13.19471 715.000
13.21499 690.000
13.23527 669.000
13.25555 623.000
13.27583 729.000
13.29611 771.000
13.31639 819.000
13.33667 818.000
13.35695 882.000
13.37723 795.000
13.39751 819.000
13.41779 845.000
13.43807 848.000
13.45835 994.000
13.47863 1099.000
13.49891 1182.000
13.51919 1346.000
13.53947 1285.000
13.55975 1176.000
13.58003 1015.000
13.60031 916.000
13.62059 830.000
13.64087 761.000
13.66115 723.000
13.68143 669.000
13.70171 537.000
13.72199 516.000
13.74227 436.000
13.76255 433.000
13.78283 368.000
13.80311 427.000
13.82339 349.000
13.84367 366.000
13.86395 349.000
13.88423 364.000
13.90451 339.000
13.92479 375.000
13.94507 313.000
13.96535 338.000
13.98563 345.000
14.00591 357.000
14.02619 353.000
14.04647 335.000
14.06675 337.000
14.08703 351.000
14.10731 379.000
14.12759 355.000
14.14787 345.000
14.16815 352.000
14.18843 357.000
14.20871 360.000
14.22899 389.000
14.24927 355.000
14.26955 348.000
14.28983 347.000
14.31011 347.000
14.33039 381.000
14.35067 391.000
14.37096 395.000
14.39124 452.000
14.41152 430.000
14.43180 476.000
14.45208 494.000
14.47236 506.000
14.49264 589.000
14.51292 666.000
14.53320 817.000
14.55348 956.000
14.57376 1082.000
14.59404 1344.000
14.61432 1586.000
14.63460 1792.000
14.65488 1835.000
14.67516 1760.000
14.69544 1539.000
14.71572 1210.000
14.73600 926.000
14.75628 832.000
14.77656 804.000
14.79684 809.000
14.81712 869.000
14.83740 920.000
14.85768 1012.000
14.87796 1102.000
14.89824 1209.000
14.91852 1077.000
14.93880 996.000
14.95908 867.000
14.97936 702.000
14.99964 611.000
15.01992 532.000
15.04020 423.000
15.06048 398.000
15.08076 442.000
15.10104 401.000
15.12132 380.000
15.14160 362.000
15.16188 355.000
15.18216 385.000
15.20244 372.000
15.22272 379.000
15.24300 368.000
15.26328 382.000
15.28356 361.000
15.30384 355.000
15.32412 397.000
15.34440 341.000
15.36468 395.000
15.38496 388.000
15.40524 383.000
15.42552 371.000
15.44580 367.000
15.46608 406.000
15.48636 369.000
15.50664 387.000
15.52692 352.000
15.54720 361.000
15.56748 372.000
15.58776 371.000
15.60804 369.000
15.62832 406.000
15.64860 405.000
15.66888 355.000
15.68916 397.000
15.70944 400.000
15.72972 372.000
15.75000 413.000
15.77028 387.000
15.79056 398.000
15.81084 411.000
15.83112 363.000
15.85140 420.000
15.87168 414.000
15.89196 441.000
15.91224 445.000
15.93252 471.000
15.95280 424.000
15.97308 458.000
15.99336 471.000
16.01364 542.000
16.03392 550.000
16.05420 601.000
16.07448 543.000
16.09476 612.000
16.11504 606.000
16.13532 674.000
16.15560 754.000
16.17588 774.000
16.19616 977.000
16.21644 1114.000
16.23672 1272.000
16.25700 1512.000
16.27729 1822.000
16.29757 2057.000
16.31785 2388.000
16.33813 2580.000
16.35841 2598.000
16.37869 2486.000
16.39897 2292.000
16.41925 1985.000
16.43953 1726.000
16.45981 1468.000
16.48009 1318.000
16.50037 1281.000
16.52065 1279.000
16.54093 1295.000
16.56121 1430.000
16.58149 1497.000
16.60177 1628.000
16.62205 1675.000
16.64233 1696.000
16.66261 1745.000
16.68289 1762.000
16.70317 1811.000
16.72345 2007.000
16.74373 2238.000
16.76401 2337.000
16.78429 2234.000
16.80457 2110.000
16.82485 1798.000
16.84513 1647.000
16.86541 1445.000
16.88569 1271.000
16.90597 1374.000
16.92625 1490.000
16.94653 1600.000
16.96681 1906.000
16.98709 2257.000
17.00737 2573.000
17.02765 2917.000
17.04793 3300.000
17.06821 3624.000
17.08849 3747.000
17.10877 3583.000
17.12905 3269.000
17.14933 2771.000
17.16961 2306.000
17.18989 1954.000
17.21017 1615.000
17.23045 1261.000
17.25073 1033.000
17.27101 932.000
17.29129 821.000
17.31157 794.000
17.33185 750.000
17.35213 675.000
17.37241 682.000
17.39269 667.000
17.41297 657.000
17.43325 629.000
17.45353 682.000
17.47381 578.000
17.49409 564.000
17.51437 631.000
17.53465 597.000
17.55493 617.000
17.57521 608.000
17.59549 662.000
17.61577 710.000
17.63605 705.000
17.65633 702.000
17.67661 749.000
17.69689 755.000
17.71717 836.000
17.73745 950.000
17.75773 894.000
17.77801 921.000
17.79829 970.000
17.81857 1142.000
17.83885 1153.000
17.85913 1315.000
17.87941 1535.000
17.89969 1737.000
17.91997 2056.000
17.94025 2343.000
17.96053 2840.000
17.98081 3279.000
18.00109 3819.000
18.02137 4634.000
18.04165 5087.000
18.06193 5300.000
18.08221 5553.000
18.10249 5211.000
18.12277 4761.000
18.14305 4103.000
18.16333 3305.000
18.18362 2671.000
18.20390 2206.000
18.22418 1791.000
18.24446 1456.000
18.26474 1309.000
18.28502 1242.000
18.30530 1088.000
18.32558 1114.000
18.34586 1012.000
18.36614 1023.000
18.38642 996.000
18.40670 1000.000
18.42698 1000.000
18.44726 1075.000
18.46754 1103.000
18.48782 1173.000
18.50810 1292.000
18.52838 1433.000
18.54866 1620.000
18.56894 1790.000
18.58922 2035.000
18.60950 2312.000
18.62978 2467.000
18.65006 2665.000
18.67034 2743.000
18.69062 2757.000
18.71090 2494.000
18.73118 2352.000
18.75146 2142.000
18.77174 1871.000
18.79202 1678.000
18.81230 1464.000
18.83258 1368.000
18.85286 1199.000
18.87314 1137.000
18.89342 1138.000
18.91370 1186.000
18.93398 1192.000
18.95426 1206.000
18.97454 1242.000
18.99482 1360.000
19.01510 1339.000
19.03538 1325.000
19.05566 1319.000
19.07594 1062.000
19.09622 995.000
19.11650 964.000
19.13678 891.000
19.15706 854.000
19.17734 829.000
19.19762 787.000
19.21790 856.000
19.23818 919.000
19.25846 971.000
19.27874 1072.000
19.29902 1140.000
19.31930 1267.000
19.33958 1469.000
19.35986 1596.000
19.38014 1999.000
19.40042 2165.000
19.42070 2474.000
19.44098 2768.000
19.46126 3039.000
19.48154 3164.000
19.50182 3188.000
19.52210 3007.000
19.54238 2827.000
19.56266 2431.000
19.58294 2041.000
19.60322 1912.000
19.62350 1680.000
19.64378 1556.000
19.66406 1508.000
19.68434 1539.000
19.70462 1524.000
19.72490 1608.000
19.74518 1742.000
19.76546 1869.000
19.78574 2085.000
19.80602 2237.000
19.82630 2506.000
19.84658 2760.000
19.86686 3071.000
19.88714 3229.000
19.90742 3307.000
19.92770 3092.000
19.94798 2934.000
19.96826 2578.000
19.98854 2377.000
20.00882 2142.000
20.02910 1868.000
20.04938 1933.000
20.06966 1867.000
20.08995 1967.000
20.11023 2032.000
20.13051 2232.000
20.15079 2288.000
20.17107 2447.000
20.19135 2475.000
20.21163 2540.000
20.23191 2597.000
20.25219 2740.000
20.27247 2881.000
20.29275 3097.000
20.31303 3358.000
20.33331 3473.000
20.35359 3162.000
20.37387 2696.000
20.39415 2361.000
20.41443 1769.000
20.43471 1502.000
20.45499 1209.000
20.47527 1078.000
20.49555 971.000
20.51583 988.000
20.53611 996.000
20.55639 1029.000
20.57667 971.000
20.59695 900.000
20.61723 856.000
20.63751 790.000
20.65779 793.000
20.67807 753.000
20.69835 734.000
20.71863 753.000
20.73891 738.000
20.75919 720.000
20.77947 760.000
20.79975 795.000
20.82003 714.000
20.84031 780.000
20.86059 786.000
20.88087 833.000
20.90115 824.000
20.92143 827.000
20.94171 856.000
20.96199 851.000
20.98227 913.000
21.00255 951.000
21.02283 1024.000
21.04311 1090.000
21.06339 1198.000
21.08367 1304.000
21.10395 1390.000
21.12423 1519.000
21.14451 1714.000
21.16479 1844.000
21.18507 1993.000
21.20535 2265.000
21.22563 2536.000
21.24591 2801.000
21.26619 3262.000
21.28647 3730.000
21.30675 4204.000
21.32703 4782.000
21.34731 5427.000
21.36759 5948.000
21.38787 6360.000
21.40815 6678.000
21.42843 7097.000
21.44871 7403.000
21.46899 7819.000
21.48927 7999.000
21.50955 8101.000
21.52983 8047.000
21.55011 7957.000
21.57039 7531.000
21.59067 7287.000
21.61095 6828.000
21.63123 6270.000
21.65151 5642.000
21.67179 5033.000
21.69207 4436.000
21.71235 3718.000
21.73263 3142.000
21.75291 2608.000
21.77319 2096.000
21.79347 1733.000
21.81375 1472.000
21.83403 1314.000
21.85431 1159.000
21.87459 1019.000
21.89487 965.000
21.91515 975.000
21.93543 917.000
21.95571 855.000
21.97599 860.000
21.99628 781.000
22.01656 760.000
22.03684 798.000
22.05712 802.000
22.07740 766.000
22.09768 793.000
22.11796 717.000
22.13824 749.000
22.15852 734.000
22.17880 774.000
22.19908 821.000
22.21936 749.000
22.23964 818.000
22.25992 799.000
22.28020 858.000
22.30048 890.000
22.32076 883.000
22.34104 935.000
22.36132 997.000
22.38160 1028.000
22.40188 987.000
22.42216 1163.000
22.44244 1205.000
22.46272 1199.000
22.48300 1233.000
22.50328 1249.000
22.52356 1173.000
22.54384 1132.000
22.56412 1097.000
22.58440 991.000
22.60468 989.000
22.62496 886.000
22.64524 915.000
22.66552 917.000
22.68580 927.000
22.70608 924.000
22.72636 1012.000
22.74664 1005.000
22.76692 983.000
22.78720 1066.000
22.80748 1130.000
22.82776 1180.000
22.84804 1152.000
22.86832 1211.000
22.88860 1238.000
22.90888 1229.000
22.92916 1125.000
22.94944 1148.000
22.96972 1147.000
22.99000 1144.000
23.01028 1087.000
23.03056 1037.000
23.05084 978.000
23.07112 872.000
23.09140 825.000
23.11168 796.000
23.13196 815.000
23.15224 770.000
23.17252 831.000
23.19280 874.000
23.21308 840.000
23.23336 965.000
23.25364 1034.000
23.27392 1080.000
23.29420 1219.000
23.31448 1328.000
23.33476 1468.000
23.35504 1589.000
23.37532 1776.000
23.39560 1983.000
23.41588 2196.000
23.43616 2325.000
23.45644 2440.000
23.47672 2553.000
23.49700 2636.000
23.51728 2593.000
23.53756 2617.000
23.55784 2473.000
23.57812 2176.000
23.59840 2057.000
23.61868 1840.000
23.63896 1622.000
23.65924 1515.000
23.67952 1451.000
23.69980 1315.000
23.72008 1253.000
23.74036 1268.000
23.76064 1197.000
23.78092 1149.000
23.80120 1145.000
23.82148 1070.000
23.84176 1080.000
23.86204 969.000
23.88232 904.000
23.90261 876.000
23.92289 805.000
23.94317 749.000
23.96345 733.000
23.98373 755.000
24.00401 713.000
24.02429 736.000
24.04457 672.000
24.06485 719.000
24.08513 757.000
24.10541 780.000
24.12569 830.000
24.14597 839.000
24.16625 883.000
24.18653 936.000
24.20681 1048.000
24.22709 1101.000
24.24737 1209.000
24.26765 1345.000
24.28793 1473.000
24.30821 1589.000
24.32849 1698.000
24.34877 1774.000
24.36905 1820.000
24.38933 1846.000
24.40961 1741.000
24.42989 1635.000
24.45017 1459.000
24.47045 1160.000
24.49073 1015.000
24.51101 1019.000
24.53129 828.000
24.55157 846.000
24.57185 833.000
24.59213 856.000
24.61241 905.000
24.63269 887.000
24.65297 963.000
24.67325 1019.000
24.69353 957.000
24.71381 978.000
24.73409 997.000
24.75437 1006.000
24.77465 937.000
24.79493 875.000
24.81521 827.000
24.83549 758.000
24.85577 750.000
24.87605 744.000
24.89633 676.000
24.91661 750.000
24.93689 760.000
24.95717 778.000
24.97745 810.000
24.99773 945.000
25.01801 916.000
25.03829 1096.000
25.05857 1065.000
25.07885 1211.000
25.09913 1306.000
25.11941 1311.000
25.13969 1347.000
25.15997 1440.000
25.18025 1468.000
25.20053 1449.000
25.22081 1412.000
25.24109 1416.000
25.26137 1379.000
25.28165 1263.000
25.30193 1186.000
25.32221 1157.000
25.34249 1123.000
25.36277 1097.000
25.38305 1089.000
25.40333 1049.000
25.42361 1069.000
25.44389 1179.000
25.46417 1065.000
25.48445 1045.000
25.50473 993.000
25.52501 905.000
25.54529 846.000
25.56557 781.000
25.58585 710.000
25.60613 701.000
25.62641 736.000
25.64669 680.000
25.66697 657.000
25.68725 657.000
25.70753 671.000
25.72781 712.000
25.74809 673.000
25.76837 715.000
25.78865 770.000
25.80893 830.000
25.82922 840.000
25.84950 907.000
25.86978 928.000
25.89006 1039.000
25.91034 1088.000
25.93062 1223.000
25.95090 1263.000
25.97118 1299.000
25.99146 1445.000
26.01174 1389.000
26.03202 1437.000
26.05230 1329.000
26.07258 1332.000
26.09286 1306.000
26.11314 1257.000
26.13342 1186.000
26.15370 1175.000
26.17398 1026.000
26.19426 920.000
26.21454 995.000
26.23482 917.000
26.25510 892.000
26.27538 944.000
26.29566 889.000
26.31594 926.000
26.33622 971.000
26.35650 979.000
26.37678 1015.000
26.39706 1016.000
26.41734 1121.000
26.43762 1107.000
26.45790 1198.000
26.47818 1190.000
26.49846 1290.000
26.51874 1267.000
26.53902 1316.000
26.55930 1276.000
26.57958 1325.000
26.59986 1267.000
26.62014 1181.000
26.64042 1191.000
26.66070 1089.000
26.68098 1063.000
26.70126 1157.000
26.72154 1058.000
26.74182 1039.000
26.76210 1117.000
26.78238 1128.000
26.80266 1209.000
26.82294 1177.000
26.84322 1201.000
26.86350 1239.000
26.88378 1302.000
26.90406 1358.000
26.92434 1408.000
26.94462 1453.000
26.96490 1342.000
26.98518 1349.000
27.00546 1311.000
27.02574 1285.000
27.04602 1188.000
27.06630 1195.000
27.08658 1168.000
27.10686 1046.000
27.12714 1078.000
27.14742 1016.000
27.16770 960.000
27.18798 1042.000
27.20826 982.000
27.22854 961.000
27.24882 990.000
27.26910 888.000
27.28938 933.000
27.30966 992.000
27.32994 974.000
27.35022 1037.000
27.37050 1075.000
27.39078 1035.000
27.41106 1015.000
27.43134 1112.000
27.45162 1081.000
27.47190 1033.000
27.49218 1033.000
27.51246 964.000
27.53274 915.000
27.55302 886.000
27.57330 740.000
27.59358 697.000
27.61386 702.000
27.63414 594.000
27.65442 570.000
27.67470 532.000
27.69498 516.000
27.71526 496.000
27.73555 487.000
27.75583 474.000
27.77611 489.000
27.79639 484.000
27.81667 466.000
27.83695 436.000
27.85723 467.000
27.87751 460.000
27.89779 475.000
27.91807 492.000
27.93835 450.000
27.95863 498.000
27.97891 466.000
27.99919 456.000
28.01947 509.000
28.03975 486.000
28.06003 513.000
28.08031 457.000
28.10059 512.000
28.12087 509.000
28.14115 555.000
28.16143 568.000
28.18171 584.000
28.20199 630.000
28.22227 654.000
28.24255 687.000
28.26283 716.000
28.28311 691.000
28.30339 748.000
28.32367 783.000
28.34395 846.000
28.36423 828.000
28.38451 888.000
28.40479 931.000
28.42507 919.000
28.44535 936.000
28.46563 986.000
28.48591 969.000
28.50619 906.000
28.52647 954.000
28.54675 954.000
28.56703 946.000
28.58731 877.000
28.60759 890.000
28.62787 827.000
28.64815 770.000
28.66843 684.000
28.68871 714.000
28.70899 701.000
28.72927 649.000
28.74955 655.000
28.76983 673.000
28.79011 646.000
28.81039 746.000
28.83067 731.000
28.85095 661.000
28.87123 734.000
28.89151 765.000
28.91179 784.000
28.93207 738.000
28.95235 835.000
28.97263 853.000
28.99291 850.000
29.01319 904.000
29.03347 971.000
29.05375 908.000
29.07403 912.000
29.09431 893.000
29.11459 831.000
29.13487 845.000
29.15515 807.000
29.17543 764.000
29.19571 760.000
29.21599 736.000
29.23627 765.000
29.25655 769.000
29.27683 702.000
29.29711 813.000
29.31739 810.000
29.33767 741.000
29.35795 802.000
29.37823 763.000
29.39851 756.000
29.41879 718.000
29.43907 717.000
29.45935 737.000
29.47963 752.000
29.49991 694.000
29.52019 720.000
29.54047 788.000
29.56075 772.000
29.58103 744.000
29.60131 683.000
29.62159 766.000
29.64188 759.000
29.66216 826.000
29.68244 833.000
29.70272 883.000
29.72300 831.000
29.74328 857.000
29.76356 855.000
29.78384 898.000
29.80412 887.000
29.82440 938.000
29.84468 889.000
29.86496 885.000
29.88524 891.000
29.90552 802.000
29.92580 853.000
29.94608 895.000
29.96636 832.000
29.98664 834.000
30.00692 830.000
30.02720 818.000
30.04748 756.000
30.06776 768.000
30.08804 743.000
30.10832 659.000
30.12860 645.000
30.14888 650.000
30.16916 627.000
30.18944 610.000
30.20972 638.000
30.23000 606.000
30.25028 608.000
30.27056 645.000
30.29084 676.000
30.31112 633.000
30.33140 733.000
30.35168 711.000
30.37196 702.000
30.39224 678.000
30.41252 706.000
30.43280 700.000
30.45308 679.000
30.47336 596.000
30.49364 618.000
30.51392 579.000
30.53420 501.000
30.55448 534.000
30.57476 495.000
30.59504 461.000
30.61532 474.000
30.63560 465.000
30.65588 442.000
30.67616 439.000
30.69644 402.000
30.71672 421.000
30.73700 442.000
30.75728 428.000
30.77756 439.000
30.79784 429.000
30.81812 459.000
30.83840 486.000
30.85868 498.000
30.87896 467.000
30.89924 482.000
30.91952 525.000
30.93980 529.000
30.96008 533.000
30.98036 579.000
31.00064 572.000
31.02092 623.000
31.04120 602.000
31.06148 606.000
31.08176 645.000
31.10204 675.000
31.12232 638.000
31.14260 601.000
31.16288 653.000
31.18316 620.000
31.20344 575.000
31.22372 564.000
31.24400 528.000
31.26428 566.000
31.28456 497.000
31.30484 503.000
31.32512 500.000
31.34540 473.000
31.36568 497.000
31.38596 431.000
31.40624 455.000
31.42652 456.000
31.44680 457.000
31.46708 467.000
31.48736 472.000
31.50764 482.000
31.52792 460.000
31.54821 553.000
31.56849 537.000
31.58877 505.000
31.60905 487.000
31.62933 528.000
31.64961 520.000
31.66989 520.000
31.69017 567.000
31.71045 600.000
31.73073 566.000
31.75101 586.000
31.77129 590.000
31.79157 585.000
31.81185 596.000
31.83213 558.000
31.85241 589.000
31.87269 585.000
31.89297 575.000
31.91325 606.000
31.93353 584.000
31.95381 604.000
31.97409 623.000
31.99437 599.000
32.01465 574.000
32.03493 590.000
32.05521 570.000
32.07549 534.000
32.09577 584.000
32.11605 558.000
32.13633 557.000
32.15661 536.000
32.17689 556.000
32.19717 492.000
32.21745 532.000
32.23773 528.000
32.25801 505.000
32.27829 489.000
32.29857 464.000
32.31885 484.000
32.33913 508.000
32.35941 460.000
32.37969 441.000
32.39997 452.000
32.42025 469.000
32.44053 447.000
32.46081 386.000
32.48109 410.000
32.50137 372.000
32.52165 407.000
32.54193 412.000
32.56221 416.000
32.58249 428.000
32.60277 462.000
32.62305 420.000
32.64333 458.000
32.66361 462.000
32.68389 495.000
32.70417 482.000
32.72445 505.000
32.74473 510.000
32.76501 519.000
32.78529 474.000
32.80557 578.000
32.82585 481.000
32.84613 489.000
32.86641 541.000
32.88669 557.000
32.90697 556.000
32.92725 529.000
32.94753 571.000
32.96781 596.000
32.98809 590.000
33.00837 557.000
33.02865 596.000
33.04893 550.000
33.06921 567.000
33.08949 556.000
33.10977 574.000
33.13005 527.000
33.15033 573.000
33.17061 515.000
33.19089 549.000
33.21117 570.000
33.23145 597.000
33.25173 577.000
33.27201 653.000
33.29229 607.000
33.31257 657.000
33.33285 623.000
33.35313 676.000
33.37341 620.000
33.39369 546.000
33.41397 597.000
33.43425 500.000
33.45454 553.000
33.47482 514.000
33.49510 501.000
33.51538 466.000
33.53566 455.000
33.55594 484.000
33.57622 452.000
33.59650 441.000
33.61678 461.000
33.63706 427.000
33.65734 451.000
33.67762 460.000
33.69790 433.000
33.71818 442.000
33.73846 400.000
33.75874 447.000
33.77902 448.000
33.79930 476.000
33.81958 472.000
33.83986 499.000
33.86014 507.000
33.88042 492.000
33.90070 495.000
33.92098 502.000
33.94126 519.000
33.96154 530.000
33.98182 520.000
34.00210 565.000
34.02238 561.000
34.04266 555.000
34.06294 584.000
34.08322 550.000
34.10350 573.000
34.12378 554.000
34.14406 565.000
34.16434 591.000
34.18462 599.000
34.20490 567.000
34.22518 601.000
34.24546 598.000
34.26574 615.000
34.28602 591.000
34.30630 658.000
34.32658 666.000
34.34686 692.000
34.36714 708.000
34.38742 741.000
34.40770 702.000
34.42798 802.000
34.44826 827.000
34.46854 922.000
34.48882 965.000
34.50910 929.000
34.52938 989.000
34.54966 952.000
34.56994 1015.000
34.59022 969.000
34.61050 936.000
34.63078 856.000
34.65106 883.000
34.67134 785.000
34.69162 818.000
34.71190 716.000
34.73218 679.000
34.75246 776.000
34.77274 716.000
34.79302 692.000
34.81330 752.000
34.83358 758.000
34.85386 729.000
34.87414 730.000
34.89442 748.000
34.91470 824.000
34.93498 813.000
34.95526 705.000
34.97554 780.000
34.99582 765.000
35.01610 687.000
35.03638 672.000
35.05666 648.000
35.07694 617.000
35.09722 585.000
35.11750 562.000
35.13778 514.000
35.15806 592.000
35.17834 495.000
35.19862 510.000
35.21890 530.000
35.23918 535.000
35.25946 468.000
35.27974 463.000
35.30002 480.000
35.32030 499.000
35.34058 510.000
35.36087 505.000
35.38115 542.000
35.40143 517.000
35.42171 523.000
35.44199 532.000
35.46227 500.000
35.48255 516.000
35.50283 509.000
35.52311 503.000
35.54339 534.000
35.56367 466.000
35.58395 514.000
35.60423 493.000
35.62451 532.000
35.64479 473.000
35.66507 506.000
35.68535 488.000
35.70563 472.000
35.72591 435.000
35.74619 451.000
35.76647 428.000
35.78675 468.000
35.80703 429.000
35.82731 460.000
35.84759 428.000
35.86787 408.000
35.88815 407.000
35.90843 416.000
35.92871 404.000
35.94899 436.000
35.96927 434.000
35.98955 427.000
36.00983 414.000
36.03011 441.000
36.05039 430.000
36.07067 485.000
36.09095 451.000
36.11123 508.000
36.13151 538.000
36.15179 507.000
36.17207 481.000
36.19235 527.000
36.21263 518.000
36.23291 512.000
36.25319 518.000
36.27347 540.000
36.29375 497.000
36.31403 527.000
36.33431 502.000
36.35459 542.000
36.37487 528.000
36.39515 561.000
36.41543 548.000
36.43571 617.000
36.45599 566.000
36.47627 585.000
36.49655 632.000
36.51683 577.000
36.53711 611.000
36.55739 629.000
36.57767 694.000
36.59795 664.000
36.61823 667.000
36.63851 715.000
36.65879 757.000
36.67907 705.000
36.69935 715.000
36.71963 731.000
36.73991 703.000
36.76019 659.000
36.78047 730.000
36.80075 679.000
36.82103 677.000
36.84131 709.000
36.86159 695.000
36.88187 675.000
36.90215 600.000
36.92243 612.000
36.94271 605.000
36.96299 592.000
36.98327 556.000
37.00355 581.000
37.02383 568.000
37.04411 550.000
37.06439 587.000
37.08467 584.000
37.10495 582.000
37.12523 535.000
37.14551 562.000
37.16579 553.000
37.18607 563.000
37.20635 558.000
37.22663 561.000
37.24691 527.000
37.26720 507.000
37.28748 513.000
37.30776 470.000
37.32804 494.000
37.34832 463.000
37.36860 449.000
37.38888 473.000
37.40916 444.000
37.42944 465.000
37.44972 463.000
37.47000 471.000
37.49028 522.000
37.51056 453.000
37.53084 437.000
37.55112 453.000
37.57140 485.000
37.59168 498.000
37.61196 499.000
37.63224 462.000
37.65252 474.000
37.67280 500.000
37.69308 489.000
37.71336 537.000
37.73364 517.000
37.75392 552.000
37.77420 504.000
37.79448 569.000
37.81476 581.000
37.83504 577.000
37.85532 611.000
37.87560 593.000
37.89588 586.000
37.91616 578.000
37.93644 627.000
37.95672 680.000
37.97700 667.000
37.99728 657.000
38.01756 594.000
38.03784 581.000
38.05812 589.000
38.07840 579.000
38.09868 539.000
38.11896 518.000
38.13924 528.000
38.15952 512.000
38.17980 477.000
38.20008 521.000
38.22036 489.000
38.24064 483.000
38.26092 498.000
38.28120 488.000
38.30148 503.000
38.32176 478.000
38.34204 499.000
38.36232 547.000
38.38260 489.000
38.40288 495.000
38.42316 502.000
38.44344 508.000
38.46372 504.000
38.48400 489.000
38.50428 450.000
38.52456 489.000
38.54484 459.000
38.56512 487.000
38.58540 473.000
38.60568 483.000
38.62596 445.000
38.64624 460.000
38.66652 442.000
38.68680 431.000
38.70708 422.000
38.72736 439.000
38.74764 418.000
38.76792 394.000
38.78820 413.000
38.80848 442.000
38.82876 422.000
38.84904 457.000
38.86932 413.000
38.88960 413.000
38.90988 402.000
38.93016 438.000
38.95044 431.000
38.97072 405.000
38.99100 420.000
39.01128 429.000
39.03156 453.000
39.05184 439.000
39.07212 438.000
39.09240 468.000
39.11268 474.000
39.13296 491.000
39.15324 461.000
39.17353 427.000
39.19381 452.000
39.21409 459.000
39.23437 460.000
39.25465 452.000
39.27493 490.000
39.29521 472.000
39.31549 470.000
39.33577 446.000
39.35605 513.000
39.37633 453.000
39.39661 539.000
39.41689 502.000
39.43717 492.000
39.45745 551.000
39.47773 520.000
39.49801 548.000
39.51829 608.000
39.53857 586.000
39.55885 534.000
39.57913 577.000
39.59941 573.000
39.61969 572.000
39.63997 591.000
39.66025 572.000
39.68053 548.000
39.70081 520.000
39.72109 559.000
39.74137 512.000
39.76165 489.000
39.78193 507.000
39.80221 541.000
39.82249 530.000
39.84277 516.000
39.86305 499.000
39.88333 502.000
39.90361 529.000
39.92389 503.000
39.94417 558.000
39.96445 601.000
39.98473 533.000
40.00501 605.000
40.02529 566.000
40.04557 641.000
40.06585 620.000
40.08613 648.000
40.10641 620.000
40.12669 685.000
40.14697 689.000
40.16725 638.000
40.18753 661.000
40.20781 665.000
40.22809 652.000
40.24837 670.000
40.26865 617.000
40.28893 580.000
40.30921 643.000
40.32949 657.000
40.34977 664.000
40.37005 649.000
40.39033 626.000
40.41061 573.000
40.43089 629.000
40.45117 562.000
40.47145 585.000
40.49173 593.000
40.51201 574.000
40.53229 531.000
40.55257 530.000
40.57285 487.000
40.59313 514.000
40.61341 500.000
40.63369 437.000
40.65397 480.000
40.67425 446.000
40.69453 434.000
40.71481 457.000
40.73509 462.000
40.75537 463.000
40.77565 473.000
40.79593 464.000
40.81621 463.000
40.83649 481.000
40.85677 455.000
40.87705 442.000
40.89733 442.000
40.91761 447.000
40.93789 472.000
40.95817 444.000
40.97845 470.000
40.99873 486.000
41.01901 453.000
41.03929 429.000
41.05957 483.000
41.07986 486.000
41.10014 468.000
41.12042 477.000
41.14070 484.000
41.16098 459.000
41.18126 508.000
41.20154 502.000
41.22182 529.000
41.24210 554.000
41.26238 507.000
41.28266 524.000
41.30294 571.000
41.32322 578.000
41.34350 597.000
41.36378 597.000
41.38406 586.000
41.40434 564.000
41.42462 574.000
41.44490 628.000
41.46518 622.000
41.48546 569.000
41.50574 636.000
41.52602 568.000
41.54630 580.000
41.56658 592.000
41.58686 574.000
41.60714 584.000
41.62742 554.000
41.64770 633.000
41.66798 639.000
41.68826 633.000
41.70854 594.000
41.72882 670.000
41.74910 671.000
41.76938 652.000
41.78966 617.000
41.80994 585.000
41.83022 604.000
41.85050 556.000
41.87078 580.000
41.89106 573.000
41.91134 537.000
41.93162 500.000
41.95190 448.000
41.97218 465.000
41.99246 420.000
42.01274 451.000
42.03302 404.000
42.05330 432.000
42.07358 450.000
42.09386 411.000
42.11414 484.000
42.13442 467.000
42.15470 443.000
42.17498 453.000
42.19526 416.000
42.21554 417.000
42.23582 442.000
42.25610 411.000
42.27638 435.000
42.29666 423.000
42.31694 417.000
42.33722 411.000
42.35750 411.000
42.37778 406.000
42.39806 415.000
42.41834 412.000
42.43862 388.000
42.45890 413.000
42.47918 387.000
42.49946 403.000
42.51974 396.000
42.54002 374.000
42.56030 379.000
42.58058 389.000
42.60086 401.000
42.62114 381.000
42.64142 390.000
42.66170 371.000
42.68198 379.000
42.70226 391.000
42.72254 379.000
42.74282 435.000
42.76310 389.000
42.78338 380.000
42.80366 413.000
42.82394 400.000
42.84422 408.000
42.86450 411.000
42.88478 432.000
42.90506 461.000
42.92534 407.000
42.94562 414.000
42.96590 445.000
42.98619 427.000
43.00647 412.000
43.02675 435.000
43.04703 419.000
43.06731 465.000
43.08759 473.000
43.10787 444.000
43.12815 484.000
43.14843 487.000
43.16871 530.000
43.18899 573.000
43.20927 499.000
43.22955 552.000
43.24983 530.000
43.27011 549.000
43.29039 583.000
43.31067 539.000
43.33095 543.000
43.35123 549.000
43.37151 570.000
43.39179 504.000
43.41207 537.000
43.43235 540.000
43.45263 562.000
43.47291 550.000
43.49319 581.000
43.51347 562.000
43.53375 542.000
43.55403 535.000
43.57431 543.000
43.59459 519.000
43.61487 543.000
43.63515 555.000
43.65543 553.000
43.67571 561.000
43.69599 514.000
43.71627 610.000
43.73655 532.000
43.75683 523.000
43.77711 535.000
43.79739 554.000
43.81767 544.000
43.83795 588.000
43.85823 611.000
43.87851 639.000
43.89879 530.000
43.91907 628.000
43.93935 592.000
43.95963 620.000
43.97991 592.000
44.00019 575.000
44.02047 556.000
44.04075 600.000
44.06103 578.000
44.08131 551.000
44.10159 541.000
44.12187 536.000
44.14215 533.000
44.16243 536.000
44.18271 568.000
44.20299 493.000
44.22327 487.000
44.24355 459.000
44.26383 522.000
44.28411 514.000
44.30439 484.000
44.32467 464.000
44.34495 455.000
44.36523 464.000
44.38551 420.000
44.40579 426.000
44.42607 445.000
44.44635 457.000
44.46663 442.000
44.48691 444.000
44.50719 420.000
44.52747 436.000
44.54775 423.000
44.56803 436.000
44.58831 453.000
44.60859 443.000
44.62887 399.000
44.64915 450.000
44.66943 485.000
44.68971 427.000
44.70999 477.000
44.73027 452.000
44.75055 473.000
44.77083 506.000
44.79111 487.000
44.81139 443.000
44.83167 455.000
44.85195 493.000
44.87223 437.000
44.89251 459.000
44.91280 454.000
44.93308 449.000
44.95336 447.000
44.97364 448.000
44.99392 471.000
45.01420 457.000
45.03448 426.000
45.05476 459.000
45.07504 456.000
45.09532 396.000
45.11560 439.000
45.13588 447.000
45.15616 405.000
45.17644 410.000
45.19672 408.000
45.21700 449.000
45.23728 421.000
45.25756 396.000
45.27784 426.000
45.29812 409.000
45.31840 439.000
45.33868 441.000
45.35896 418.000
45.37924 451.000
45.39952 462.000
45.41980 439.000
45.44008 486.000
45.46036 451.000
45.48064 434.000
45.50092 464.000
45.52120 437.000
45.54148 442.000
45.56176 457.000
45.58204 425.000
45.60232 454.000
45.62260 464.000
45.64288 427.000
45.66316 461.000
45.68344 478.000
45.70372 480.000
45.72400 455.000
45.74428 466.000
45.76456 484.000
45.78484 467.000
45.80512 426.000
45.82540 474.000
45.84568 458.000
45.86596 411.000
45.88624 450.000
45.90652 440.000
45.92680 409.000
45.94708 433.000
45.96736 442.000
45.98764 378.000
46.00792 441.000
46.02820 433.000
46.04848 445.000
46.06876 414.000
46.08904 478.000
46.10932 464.000
46.12960 410.000
46.14988 402.000
46.17016 451.000
46.19044 462.000
46.21072 491.000
46.23100 462.000
46.25128 431.000
46.27156 458.000
46.29184 446.000
46.31212 459.000
46.33240 462.000
46.35268 456.000
46.37296 501.000
46.39324 486.000
46.41352 508.000
46.43380 476.000
46.45408 488.000
46.47436 479.000
46.49464 469.000
46.51492 438.000
46.53520 460.000
46.55548 499.000
46.57576 485.000
46.59604 493.000
46.61632 501.000
46.63660 472.000
46.65688 462.000
46.67716 459.000
46.69744 482.000
46.71772 460.000
46.73800 477.000
46.75828 439.000
46.77856 478.000
46.79884 481.000
46.81913 437.000
46.83941 436.000
46.85969 403.000
46.87997 446.000
46.90025 409.000
46.92053 453.000
46.94081 416.000
46.96109 435.000
46.98137 466.000
47.00165 440.000
47.02193 424.000
47.04221 460.000
47.06249 446.000
47.08277 457.000
47.10305 488.000
47.12333 454.000
47.14361 464.000
47.16389 486.000
47.18417 439.000
47.20445 481.000
47.22473 502.000
47.24501 475.000
47.26529 549.000
47.28557 526.000
47.30585 460.000
47.32613 476.000
47.34641 503.000
47.36669 509.000
47.38697 490.000
47.40725 486.000
47.42753 538.000
47.44781 526.000
47.46809 487.000
47.48837 477.000
47.50865 476.000
47.52893 493.000
47.54921 502.000
47.56949 484.000
47.58977 464.000
47.61005 497.000
47.63033 459.000
47.65061 449.000
47.67089 451.000
47.69117 472.000
47.71145 457.000
47.73173 495.000
47.75201 441.000
47.77229 449.000
47.79257 408.000
47.81285 443.000
47.83313 393.000
47.85341 493.000
47.87369 461.000
47.89397 461.000
47.91425 463.000
47.93453 445.000
47.95481 424.000
47.97509 419.000
47.99537 419.000
48.01565 409.000
48.03593 407.000
48.05621 408.000
48.07649 383.000
48.09677 399.000
48.11705 409.000
48.13733 383.000
48.15761 375.000
48.17789 380.000
48.19817 350.000
48.21845 389.000
48.23873 380.000
48.25901 415.000
48.27929 371.000
48.29957 382.000
48.31985 400.000
48.34013 384.000
48.36041 406.000
48.38069 384.000
48.40097 391.000
48.42125 402.000
48.44153 411.000
48.46181 394.000
48.48209 424.000
48.50237 433.000
48.52265 406.000
48.54293 405.000
48.56321 462.000
48.58349 391.000
48.60377 400.000
48.62405 409.000
48.64433 403.000
48.66461 381.000
48.68489 402.000
48.70517 380.000
48.72546 365.000
48.74574 391.000
48.76602 355.000
48.78630 356.000
48.80658 345.000
48.82686 361.000
48.84714 358.000
48.86742 373.000
48.88770 336.000
48.90798 386.000
48.92826 406.000
48.94854 352.000
48.96882 372.000
48.98910 396.000
49.00938 356.000
49.02966 370.000
49.04994 390.000
49.07022 341.000
49.09050 357.000
49.11078 369.000
49.13106 380.000
49.15134 395.000
49.17162 382.000
49.19190 403.000
49.21218 379.000
49.23246 358.000
49.25274 374.000
49.27302 410.000
49.29330 390.000
49.31358 389.000
49.33386 403.000
49.35414 384.000
49.37442 396.000
49.39470 391.000
49.41498 416.000
49.43526 401.000
49.45554 381.000
49.47582 361.000
49.49610 410.000
49.51638 394.000
49.53666 425.000
49.55694 398.000
49.57722 432.000
49.59750 372.000
49.61778 415.000
49.63806 373.000
49.65834 391.000
49.67862 430.000
49.69890 408.000
49.71918 401.000
49.73946 401.000
49.75974 378.000
49.78002 405.000
49.80030 413.000
49.82058 390.000
49.84086 336.000
49.86114 398.000
49.88142 380.000
49.90170 382.000
49.92198 395.000
49.94226 390.000
49.96254 349.000
49.98282 376.000
50.00310 373.000
