5.00155 1075.000
5.02183 1138.000
5.04211 1173.000
5.06239 1109.000
5.08267 1045.000
5.10295 1035.000
5.12323 1022.000
5.14351 1057.000
5.16379 1077.000
5.18407 1076.000
5.20435 958.000
5.22463 1100.000
5.24491 1020.000
5.26519 1036.000
5.28547 1060.000
5.30575 1071.000
5.32603 1018.000
5.34631 1063.000
5.36659 982.000
5.38687 1009.000
5.40715 1034.000
5.42743 1000.000
5.44771 974.000
5.46799 1034.000
5.48827 932.000
5.50855 1020.000
5.52883 1034.000
5.54911 982.000
5.56939 898.000
5.58967 933.000
5.60995 992.000
5.63023 1043.000
5.65051 1008.000
5.67079 998.000
5.69107 1033.000
5.71135 966.000
5.73163 949.000
5.75191 966.000
5.77219 964.000
5.79247 1020.000
5.81275 921.000
5.83303 887.000
5.85331 1026.000
5.87359 921.000
5.89387 963.000
5.91415 968.000
5.93443 1037.000
5.95471 966.000
5.97499 895.000
5.99527 917.000
6.01555 986.000
6.03583 925.000
6.05611 934.000
6.07639 917.000
6.09667 971.000
6.11695 963.000
6.13723 930.000
6.15751 990.000
6.17779 983.000
6.19807 940.000
6.21835 939.000
6.23863 902.000
6.25891 918.000
6.27919 1010.000
6.29947 984.000
6.31975 962.000
6.34003 953.000
6.36031 965.000
6.38059 966.000
6.40087 992.000
6.42115 983.000
6.44143 1020.000
6.46171 985.000
6.48199 1002.000
6.50227 1017.000
6.52255 1038.000
6.54283 1021.000
6.56311 991.000
6.58339 1044.000
6.60367 1015.000
6.62395 988.000
6.64423 1067.000
6.66451 1049.000
6.68479 1063.000
6.70507 1068.000
6.72536 1095.000
6.74564 1113.000
6.76592 1113.000
6.78620 1102.000
6.80648 1179.000
6.82676 1127.000
6.84704 1151.000
6.86732 1125.000
6.88760 1083.000
6.90788 1065.000
6.92816 1097.000
6.94844 1008.000
6.96872 1047.000
6.98900 1046.000
7.00928 1038.000
7.02956 983.000
7.04984 970.000
7.07012 965.000
7.09040 991.000
7.11068 973.000
7.13096 1025.000
7.15124 1035.000
7.17152 907.000
7.19180 934.000
7.21208 970.000
7.23236 1005.000
7.25264 942.000
7.27292 907.000
7.29320 963.000
7.31348 974.000
7.33376 1052.000
7.35404 994.000
7.37432 890.000
7.39460 934.000
7.41488 903.000
7.43516 948.000
7.45544 953.000
7.47572 914.000
7.49600 934.000
7.51628 964.000
7.53656 939.000
7.55684 1012.000
7.57712 989.000
7.59740 962.000
7.61768 928.000
7.63796 905.000
7.65824 924.000
7.67852 959.000
7.69880 953.000
7.71908 973.000
7.73936 894.000
7.75964 888.000
7.77992 919.000
7.80020 870.000
7.82048 934.000
7.84076 900.000
7.86104 937.000
7.88132 926.000
7.90160 959.000
7.92188 920.000
7.94216 962.000
7.96244 869.000
7.98272 943.000
8.00300 1019.000
8.02328 947.000
8.04356 954.000
8.06384 985.000
8.08412 939.000
8.10440 915.000
8.12468 971.000
8.14496 927.000
8.16524 962.000
8.18552 946.000
8.20580 929.000
8.22608 986.000
8.24636 952.000
8.26664 934.000
8.28692 1028.000
8.30720 997.000
8.32748 1013.000
8.34776 1004.000
8.36804 1034.000
8.38832 987.000
8.40860 957.000
8.42888 1006.000
8.44916 994.000
8.46944 975.000
8.48972 1012.000
8.51000 965.000
8.53028 972.000
8.55056 920.000
8.57084 905.000
8.59112 886.000
8.61140 911.000
8.63168 917.000
8.65197 883.000
8.67225 885.000
8.69253 908.000
8.71281 906.000
8.73309 927.000
8.75337 912.000
8.77365 832.000
8.79393 920.000
8.81421 872.000
8.83449 887.000
8.85477 865.000
8.87505 925.000
8.89533 845.000
8.91561 867.000
8.93589 865.000
8.95617 866.000
8.97645 901.000
8.99673 890.000
9.01701 821.000
9.03729 853.000
9.05757 848.000
9.07785 796.000
9.09813 853.000
9.11841 832.000
9.13869 813.000
9.15897 835.000
9.17925 806.000
9.19953 851.000
9.21981 783.000
9.24009 826.000
9.26037 809.000
9.28065 805.000
9.30093 846.000
9.32121 810.000
9.34149 836.000
9.36177 802.000
9.38205 867.000
9.40233 850.000
9.42261 907.000
9.44289 839.000
9.46317 776.000
9.48345 858.000
9.50373 840.000
9.52401 805.000
9.54429 783.000
9.56457 864.000
9.58485 830.000
9.60513 897.000
9.62541 832.000
9.64569 830.000
9.66597 844.000
9.68625 817.000
9.70653 836.000
9.72681 818.000
9.74709 887.000
9.76737 836.000
9.78765 765.000
9.80793 834.000
9.82821 812.000
9.84849 782.000
9.86877 792.000
9.88905 763.000
9.90933 785.000
9.92961 827.000
9.94989 787.000
9.97017 801.000
9.99045 815.000
10.01073 804.000
10.03101 814.000
10.05129 805.000
10.07157 836.000
10.09185 797.000
10.11213 851.000
10.13241 823.000
10.15269 805.000
10.17297 819.000
10.19325 824.000
10.21353 833.000
10.23381 826.000
10.25409 860.000
10.27437 802.000
10.29465 807.000
10.31493 821.000
10.33521 816.000
10.35549 806.000
10.37577 844.000
10.39605 804.000
10.41633 774.000
10.43661 797.000
10.45689 843.000
10.47717 810.000
10.49745 780.000
10.51773 788.000
10.53801 805.000
10.55830 785.000
10.57858 783.000
10.59886 836.000
10.61914 783.000
10.63942 814.000
10.65970 789.000
10.67998 846.000
10.70026 813.000
10.72054 761.000
10.74082 852.000
10.76110 787.000
10.78138 814.000
10.80166 824.000
10.82194 830.000
10.84222 797.000
10.86250 791.000
10.88278 797.000
10.90306 817.000
10.92334 817.000
10.94362 758.000
10.96390 749.000
10.98418 779.000
11.00446 798.000
11.02474 824.000
11.04502 795.000
11.06530 755.000
11.08558 824.000
11.10586 811.000
11.12614 818.000
11.14642 748.000
11.16670 790.000
11.18698 822.000
11.20726 789.000
11.22754 812.000
11.24782 841.000
11.26810 791.000
11.28838 812.000
11.30866 746.000
11.32894 785.000
11.34922 772.000
11.36950 825.000
11.38978 803.000
11.41006 745.000
11.43034 785.000
11.45062 775.000
11.47090 790.000
11.49118 763.000
11.51146 768.000
11.53174 842.000
11.55202 836.000
11.57230 797.000
11.59258 816.000
11.61286 813.000
11.63314 823.000
11.65342 730.000
11.67370 804.000
11.69398 858.000
11.71426 801.000
11.73454 806.000
11.75482 777.000
11.77510 782.000
11.79538 826.000
11.81566 801.000
11.83594 780.000
11.85622 773.000
11.87650 801.000
11.89678 826.000
11.91706 753.000
11.93734 807.000
11.95762 823.000
11.97790 865.000
11.99818 838.000
12.01846 811.000
12.03874 797.000
12.05902 858.000
12.07930 826.000
12.09958 854.000
12.11986 814.000
12.14014 779.000
12.16042 777.000
12.18070 800.000
12.20098 820.000
12.22126 791.000
12.24154 817.000
12.26182 820.000
12.28210 827.000
12.30238 848.000
12.32266 858.000
12.34294 813.000
12.36322 853.000
12.38350 808.000
12.40378 818.000
12.42406 853.000
12.44434 812.000
12.46463 796.000
12.48491 819.000
12.50519 840.000
12.52547 860.000
12.54575 818.000
12.56603 831.000
12.58631 815.000
12.60659 828.000
12.62687 826.000
12.64715 827.000
12.66743 828.000
12.68771 864.000
12.70799 827.000
12.72827 865.000
12.74855 920.000
12.76883 844.000
12.78911 831.000
12.80939 902.000
12.82967 873.000
12.84995 860.000
12.87023 853.000
12.89051 882.000
12.91079 857.000
12.93107 904.000
12.95135 906.000
12.97163 808.000
12.99191 899.000
13.01219 862.000
13.03247 844.000
13.05275 896.000
13.07303 915.000
13.09331 869.000
13.11359 874.000
13.13387 950.000
13.15415 915.000
13.17443 917.000
13.19471 875.000
13.21499 915.000
13.23527 864.000
13.25555 931.000
13.27583 925.000
13.29611 908.000
13.31639 884.000
13.33667 959.000
13.35695 895.000
13.37723 933.000
13.39751 958.000
13.41779 984.000
13.43807 886.000
13.45835 957.000
13.47863 997.000
13.49891 952.000
13.51919 937.000
13.53947 938.000
13.55975 973.000
13.58003 944.000
13.60031 921.000
13.62059 986.000
13.64087 952.000
13.66115 990.000
13.68143 912.000
13.70171 1018.000
13.72199 905.000
13.74227 962.000
13.76255 975.000
13.78283 927.000
13.80311 913.000
13.82339 966.000
13.84367 917.000
13.86395 976.000
13.88423 972.000
13.90451 954.000
13.92479 996.000
13.94507 966.000
13.96535 962.000
13.98563 931.000
14.00591 987.000
14.02619 970.000
14.04647 946.000
14.06675 991.000
14.08703 966.000
14.10731 995.000
14.12759 943.000
14.14787 1045.000
14.16815 969.000
14.18843 999.000
14.20871 998.000
14.22899 978.000
14.24927 983.000
14.26955 956.000
14.28983 959.000
14.31011 1033.000
14.33039 1033.000
14.35067 1044.000
14.37096 1053.000
14.39124 1034.000
14.41152 1063.000
14.43180 1021.000
14.45208 1038.000
14.47236 971.000
14.49264 1169.000
14.51292 1080.000
14.53320 1058.000
14.55348 1035.000
14.57376 1058.000
14.59404 1031.000
14.61432 1093.000
14.63460 1069.000
14.65488 1168.000
14.67516 1126.000
14.69544 1107.000
14.71572 1117.000
14.73600 1088.000
14.75628 1098.000
14.77656 1051.000
14.79684 1100.000
14.81712 1147.000
14.83740 1084.000
14.85768 1095.000
14.87796 1100.000
14.89824 1053.000
14.91852 1170.000
14.93880 1062.000
14.95908 1121.000
14.97936 1054.000
14.99964 1116.000
15.01992 1090.000
15.04020 1186.000
15.06048 1101.000
15.08076 1106.000
15.10104 1045.000
15.12132 1136.000
15.14160 1201.000
15.16188 1132.000
15.18216 1138.000
15.20244 1124.000
15.22272 1241.000
15.24300 1139.000
15.26328 1135.000
15.28356 1107.000
15.30384 1136.000
15.32412 1153.000
15.34440 1194.000
15.36468 1146.000
15.38496 1130.000
15.40524 1231.000
15.42552 1208.000
15.44580 1130.000
15.46608 1120.000
15.48636 1165.000
15.50664 1133.000
15.52692 1212.000
15.54720 1237.000
15.56748 1243.000
15.58776 1291.000
15.60804 1202.000
15.62832 1184.000
15.64860 1267.000
15.66888 1223.000
15.68916 1218.000
15.70944 1298.000
15.72972 1203.000
15.75000 1307.000
15.77028 1265.000
15.79056 1255.000
15.81084 1233.000
15.83112 1212.000
15.85140 1290.000
15.87168 1261.000
15.89196 1283.000
15.91224 1240.000
15.93252 1243.000
15.95280 1291.000
15.97308 1337.000
15.99336 1361.000
16.01364 1228.000
16.03392 1322.000
16.05420 1428.000
16.07448 1398.000
16.09476 1322.000
16.11504 1282.000
16.13532 1368.000
16.15560 1390.000
16.17588 1372.000
16.19616 1406.000
16.21644 1362.000
16.23672 1392.000
16.25700 1466.000
16.27729 1448.000
16.29757 1362.000
16.31785 1415.000
16.33813 1493.000
16.35841 1436.000
16.37869 1501.000
16.39897 1473.000
16.41925 1419.000
16.43953 1541.000
16.45981 1419.000
16.48009 1543.000
16.50037 1398.000
16.52065 1526.000
16.54093 1558.000
16.56121 1479.000
16.58149 1529.000
16.60177 1592.000
16.62205 1502.000
16.64233 1553.000
16.66261 1527.000
16.68289 1584.000
16.70317 1580.000
16.72345 1542.000
16.74373 1606.000
16.76401 1598.000
16.78429 1613.000
16.80457 1553.000
16.82485 1552.000
16.84513 1586.000
16.86541 1624.000
16.88569 1629.000
16.90597 1712.000
16.92625 1594.000
16.94653 1633.000
16.96681 1688.000
16.98709 1652.000
17.00737 1650.000
17.02765 1733.000
17.04793 1772.000
17.06821 1739.000
17.08849 1740.000
17.10877 1773.000
17.12905 1699.000
17.14933 1830.000
17.16961 1769.000
17.18989 1678.000
17.21017 1756.000
17.23045 1775.000
17.25073 1750.000
17.27101 1736.000
17.29129 1749.000
17.31157 1733.000
17.33185 1675.000
17.35213 1725.000
17.37241 1700.000
17.39269 1699.000
17.41297 1720.000
17.43325 1695.000
17.45353 1693.000
17.47381 1741.000
17.49409 1672.000
17.51437 1761.000
17.53465 1754.000
17.55493 1818.000
17.57521 1752.000
17.59549 1771.000
17.61577 1827.000
17.63605 1778.000
17.65633 1797.000
17.67661 1723.000
17.69689 1839.000
17.71717 1836.000
17.73745 1847.000
17.75773 1850.000
17.77801 1840.000
17.79829 1858.000
17.81857 1870.000
17.83885 1912.000
17.85913 1829.000
17.87941 1893.000
17.89969 1923.000
17.91997 1974.000
17.94025 2002.000
17.96053 1961.000
17.98081 1906.000
18.00109 2030.000
18.02137 2036.000
18.04165 2093.000
18.06193 2040.000
18.08221 2076.000
18.10249 2023.000
18.12277 2079.000
18.14305 2118.000
18.16333 2066.000
18.18362 2039.000
18.20390 2029.000
18.22418 2012.000
18.24446 2062.000
18.26474 2084.000
18.28502 1944.000
18.30530 2049.000
18.32558 2050.000
18.34586 1962.000
18.36614 1948.000
18.38642 1969.000
18.40670 2040.000
18.42698 1911.000
18.44726 2017.000
18.46754 1911.000
18.48782 2042.000
18.50810 1908.000
18.52838 2030.000
18.54866 2029.000
18.56894 2092.000
18.58922 2132.000
18.60950 2161.000
18.62978 2110.000
18.65006 2025.000
18.67034 2083.000
18.69062 2058.000
18.71090 2105.000
18.73118 2060.000
18.75146 2078.000
18.77174 2047.000
18.79202 2071.000
18.81230 2093.000
18.83258 2094.000
18.85286 2013.000
18.87314 2075.000
18.89342 2084.000
18.91370 2082.000
18.93398 2036.000
18.95426 2055.000
18.97454 2071.000
18.99482 2101.000
19.01510 2097.000
19.03538 2128.000
19.05566 2033.000
19.07594 2129.000
19.09622 2030.000
19.11650 2130.000
19.13678 2081.000
19.15706 2018.000
19.17734 2027.000
19.19762 2184.000
19.21790 2108.000
19.23818 2020.000
19.25846 2089.000
19.27874 2169.000
19.29902 2112.000
19.31930 2022.000
19.33958 2106.000
19.35986 2073.000
19.38014 2134.000
19.40042 2127.000
19.42070 2146.000
19.44098 2188.000
19.46126 2172.000
19.48154 2054.000
19.50182 2226.000
19.52210 2189.000
19.54238 2057.000
19.56266 2095.000
19.58294 2238.000
19.60322 2088.000
19.62350 2164.000
19.64378 2172.000
19.66406 2125.000
19.68434 2184.000
19.70462 2118.000
19.72490 2179.000
19.74518 2108.000
19.76546 2088.000
19.78574 2188.000
19.80602 2143.000
19.82630 2120.000
19.84658 2157.000
19.86686 2219.000
19.88714 2098.000
19.90742 2255.000
19.92770 2113.000
19.94798 2130.000
19.96826 2130.000
19.98854 2118.000
20.00882 2118.000
20.02910 2098.000
20.04938 2202.000
20.06966 2081.000
20.08995 2144.000
20.11023 2146.000
20.13051 2124.000
20.15079 2087.000
20.17107 1995.000
20.19135 2158.000
20.21163 2097.000
20.23191 2116.000
20.25219 2076.000
20.27247 2115.000
20.29275 2024.000
20.31303 2106.000
20.33331 2104.000
20.35359 2045.000
20.37387 2099.000
20.39415 2052.000
20.41443 2119.000
20.43471 1984.000
20.45499 2054.000
20.47527 1961.000
20.49555 2001.000
20.51583 1938.000
20.53611 2035.000
20.55639 2075.000
20.57667 2018.000
20.59695 1985.000
20.61723 1905.000
20.63751 1920.000
20.65779 1916.000
20.67807 1928.000
20.69835 1949.000
20.71863 1921.000
20.73891 2018.000
20.75919 1930.000
20.77947 2047.000
20.79975 2014.000
20.82003 1921.000
20.84031 1898.000
20.86059 1880.000
20.88087 1942.000
20.90115 1890.000
20.92143 1930.000
20.94171 1920.000
20.96199 1988.000
20.98227 1885.000
21.00255 1948.000
21.02283 1952.000
21.04311 1931.000
21.06339 1860.000
21.08367 1909.000
21.10395 1887.000
21.12423 1948.000
21.14451 1911.000
21.16479 1876.000
21.18507 1936.000
21.20535 1930.000
21.22563 2039.000
21.24591 1920.000
21.26619 1961.000
21.28647 1941.000
21.30675 2027.000
21.32703 1992.000
21.34731 2041.000
21.36759 1999.000
21.38787 2117.000
21.40815 2059.000
21.42843 2161.000
21.44871 2009.000
21.46899 2031.000
21.48927 2080.000
21.50955 2093.000
21.52983 2111.000
21.55011 2009.000
21.57039 1998.000
21.59067 1983.000
21.61095 1941.000
21.63123 1982.000
21.65151 2049.000
21.67179 2016.000
21.69207 1940.000
21.71235 1910.000
21.73263 1903.000
21.75291 1874.000
21.77319 1762.000
21.79347 1905.000
21.81375 1754.000
21.83403 1793.000
21.85431 1728.000
21.87459 1786.000
21.89487 1795.000
21.91515 1716.000
21.93543 1676.000
21.95571 1671.000
21.97599 1660.000
21.99628 1688.000
22.01656 1662.000
22.03684 1669.000
22.05712 1657.000
22.07740 1622.000
22.09768 1615.000
22.11796 1686.000
22.13824 1574.000
22.15852 1648.000
22.17880 1616.000
22.19908 1568.000
22.21936 1628.000
22.23964 1569.000
22.25992 1563.000
22.28020 1560.000
22.30048 1593.000
22.32076 1562.000
22.34104 1622.000
22.36132 1564.000
22.38160 1568.000
22.40188 1628.000
22.42216 1487.000
22.44244 1604.000
22.46272 1550.000
22.48300 1587.000
22.50328 1519.000
22.52356 1537.000
22.54384 1497.000
22.56412 1519.000
22.58440 1509.000
22.60468 1537.000
22.62496 1477.000
22.64524 1518.000
22.66552 1532.000
22.68580 1438.000
22.70608 1463.000
22.72636 1447.000
22.74664 1421.000
22.76692 1475.000
22.78720 1452.000
22.80748 1382.000
22.82776 1452.000
22.84804 1492.000
22.86832 1435.000
22.88860 1476.000
22.90888 1459.000
22.92916 1455.000
22.94944 1473.000
22.96972 1465.000
22.99000 1523.000
23.01028 1438.000
23.03056 1392.000
23.05084 1429.000
23.07112 1396.000
23.09140 1457.000
23.11168 1482.000
23.13196 1456.000
23.15224 1446.000
23.17252 1361.000
23.19280 1429.000
23.21308 1445.000
23.23336 1364.000
23.25364 1462.000
23.27392 1455.000
23.29420 1426.000
23.31448 1333.000
23.33476 1434.000
23.35504 1369.000
23.37532 1393.000
23.39560 1448.000
23.41588 1429.000
23.43616 1444.000
23.45644 1444.000
23.47672 1420.000
23.49700 1418.000
23.51728 1464.000
23.53756 1417.000
23.55784 1400.000
23.57812 1448.000
23.59840 1450.000
23.61868 1312.000
23.63896 1382.000
23.65924 1331.000
23.67952 1369.000
23.69980 1344.000
23.72008 1345.000
23.74036 1334.000
23.76064 1343.000
23.78092 1282.000
23.80120 1312.000
23.82148 1313.000
23.84176 1282.000
23.86204 1299.000
23.88232 1222.000
23.90261 1262.000
23.92289 1252.000
23.94317 1294.000
23.96345 1230.000
23.98373 1309.000
24.00401 1237.000
24.02429 1288.000
24.04457 1323.000
24.06485 1271.000
24.08513 1204.000
24.10541 1273.000
24.12569 1296.000
24.14597 1252.000
24.16625 1258.000
24.18653 1258.000
24.20681 1256.000
24.22709 1257.000
24.24737 1267.000
24.26765 1295.000
24.28793 1286.000
24.30821 1312.000
24.32849 1238.000
24.34877 1188.000
24.36905 1201.000
24.38933 1177.000
24.40961 1209.000
24.42989 1178.000
24.45017 1183.000
24.47045 1210.000
24.49073 1154.000
24.51101 1224.000
24.53129 1166.000
24.55157 1217.000
24.57185 1109.000
24.59213 1220.000
24.61241 1200.000
24.63269 1202.000
24.65297 1153.000
24.67325 1196.000
24.69353 1222.000
24.71381 1168.000
24.73409 1158.000
24.75437 1138.000
24.77465 1195.000
24.79493 1215.000
24.81521 1153.000
24.83549 1217.000
24.85577 1146.000
24.87605 1124.000
24.89633 1152.000
24.91661 1118.000
24.93689 1139.000
24.95717 1092.000
24.97745 1120.000
24.99773 1124.000
25.01801 1059.000
25.03829 1151.000
25.05857 1122.000
25.07885 1139.000
25.09913 1096.000
25.11941 1140.000
25.13969 1129.000
25.15997 1138.000
25.18025 1154.000
25.20053 1154.000
25.22081 1134.000
25.24109 1086.000
25.26137 1192.000
25.28165 1125.000
25.30193 1093.000
25.32221 1176.000
25.34249 1160.000
25.36277 1058.000
25.38305 1103.000
25.40333 1057.000
25.42361 1057.000
25.44389 1213.000
25.46417 1086.000
25.48445 1110.000
25.50473 1116.000
25.52501 1099.000
25.54529 1079.000
25.56557 1104.000
25.58585 1033.000
25.60613 1033.000
25.62641 1088.000
25.64669 1082.000
25.66697 1021.000
25.68725 1059.000
25.70753 1052.000
25.72781 1030.000
25.74809 1083.000
25.76837 1021.000
25.78865 1092.000
25.80893 1031.000
25.82922 1105.000
25.84950 1087.000
25.86978 984.000
25.89006 1061.000
25.91034 1086.000
25.93062 1054.000
25.95090 1034.000
25.97118 1040.000
25.99146 1013.000
26.01174 1038.000
26.03202 1057.000
26.05230 1048.000
26.07258 1114.000
26.09286 1001.000
26.11314 1065.000
26.13342 1039.000
26.15370 1067.000
26.17398 1017.000
26.19426 1011.000
26.21454 1023.000
26.23482 1002.000
26.25510 1050.000
26.27538 983.000
26.29566 991.000
26.31594 1097.000
26.33622 1011.000
26.35650 1031.000
26.37678 993.000
26.39706 1001.000
26.41734 935.000
26.43762 1051.000
26.45790 930.000
26.47818 1031.000
26.49846 1043.000
26.51874 970.000
26.53902 949.000
26.55930 1033.000
26.57958 1037.000
26.59986 914.000
26.62014 1047.000
26.64042 997.000
26.66070 1003.000
26.68098 1022.000
26.70126 1024.000
26.72154 919.000
26.74182 980.000
26.76210 959.000
26.78238 985.000
26.80266 966.000
26.82294 949.000
26.84322 978.000
26.86350 952.000
26.88378 995.000
26.90406 945.000
26.92434 964.000
26.94462 978.000
26.96490 972.000
26.98518 961.000
27.00546 952.000
27.02574 969.000
27.04602 917.000
27.06630 953.000
27.08658 1062.000
27.10686 964.000
27.12714 929.000
27.14742 936.000
27.16770 953.000
27.18798 932.000
27.20826 910.000
27.22854 905.000
27.24882 899.000
27.26910 864.000
27.28938 872.000
27.30966 899.000
27.32994 925.000
27.35022 904.000
27.37050 905.000
27.39078 967.000
27.41106 922.000
27.43134 877.000
27.45162 917.000
27.47190 885.000
27.49218 895.000
27.51246 865.000
27.53274 911.000
27.55302 881.000
27.57330 873.000
27.59358 877.000
27.61386 849.000
27.63414 881.000
27.65442 873.000
27.67470 933.000
27.69498 875.000
27.71526 899.000
27.73555 857.000
27.75583 857.000
27.77611 865.000
27.79639 827.000
27.81667 851.000
27.83695 872.000
27.85723 840.000
27.87751 865.000
27.89779 890.000
27.91807 850.000
27.93835 852.000
27.95863 840.000
27.97891 834.000
27.99919 817.000
28.01947 868.000
28.03975 787.000
28.06003 836.000
28.08031 767.000
28.10059 806.000
28.12087 809.000
28.14115 805.000
28.16143 851.000
28.18171 846.000
28.20199 824.000
28.22227 832.000
28.24255 817.000
28.26283 831.000
28.28311 793.000
28.30339 867.000
28.32367 804.000
28.34395 871.000
28.36423 827.000
28.38451 862.000
28.40479 854.000
28.42507 880.000
28.44535 781.000
28.46563 805.000
28.48591 810.000
28.50619 873.000
28.52647 794.000
28.54675 826.000
28.56703 818.000
28.58731 798.000
28.60759 818.000
28.62787 784.000
28.64815 763.000
28.66843 766.000
28.68871 820.000
28.70899 806.000
28.72927 824.000
28.74955 850.000
28.76983 813.000
28.79011 807.000
28.81039 855.000
28.83067 808.000
28.85095 868.000
28.87123 781.000
28.89151 787.000
28.91179 792.000
28.93207 809.000
28.95235 764.000
28.97263 812.000
28.99291 788.000
29.01319 809.000
29.03347 811.000
29.05375 779.000
29.07403 810.000
29.09431 783.000
29.11459 785.000
29.13487 724.000
29.15515 724.000
29.17543 805.000
29.19571 754.000
29.21599 815.000
29.23627 814.000
29.25655 833.000
29.27683 810.000
29.29711 796.000
29.31739 814.000
29.33767 804.000
29.35795 732.000
29.37823 758.000
29.39851 770.000
29.41879 768.000
29.43907 717.000
29.45935 759.000
29.47963 815.000
29.49991 760.000
29.52019 794.000
29.54047 778.000
29.56075 748.000
29.58103 753.000
29.60131 734.000
29.62159 728.000
29.64188 782.000
29.66216 796.000
29.68244 765.000
29.70272 784.000
29.72300 770.000
29.74328 784.000
29.76356 732.000
29.78384 756.000
29.80412 732.000
29.82440 739.000
29.84468 755.000
29.86496 756.000
29.88524 757.000
29.90552 754.000
29.92580 739.000
29.94608 730.000
29.96636 704.000
29.98664 761.000
30.00692 693.000
30.02720 710.000
30.04748 672.000
30.06776 715.000
30.08804 693.000
30.10832 699.000
30.12860 737.000
30.14888 720.000
30.16916 706.000
30.18944 710.000
30.20972 704.000
30.23000 685.000
30.25028 749.000
30.27056 674.000
30.29084 686.000
30.31112 690.000
30.33140 678.000
30.35168 701.000
30.37196 719.000
30.39224 710.000
30.41252 691.000
30.43280 712.000
30.45308 702.000
30.47336 706.000
30.49364 709.000
30.51392 693.000
30.53420 703.000
30.55448 689.000
30.57476 695.000
30.59504 722.000
30.61532 685.000
30.63560 675.000
30.65588 674.000
30.67616 634.000
30.69644 665.000
30.71672 733.000
30.73700 657.000
30.75728 615.000
30.77756 716.000
30.79784 663.000
30.81812 684.000
30.83840 619.000
30.85868 645.000
30.87896 732.000
30.89924 653.000
30.91952 661.000
30.93980 668.000
30.96008 646.000
30.98036 630.000
31.00064 639.000
31.02092 660.000
31.04120 631.000
31.06148 669.000
31.08176 699.000
31.10204 645.000
31.12232 624.000
31.14260 694.000
31.16288 681.000
31.18316 678.000
31.20344 620.000
31.22372 651.000
31.24400 678.000
31.26428 653.000
31.28456 621.000
31.30484 625.000
31.32512 653.000
31.34540 642.000
31.36568 675.000
31.38596 669.000
31.40624 654.000
31.42652 672.000
31.44680 648.000
31.46708 628.000
31.48736 694.000
31.50764 706.000
31.52792 642.000
31.54821 657.000
31.56849 666.000
31.58877 628.000
31.60905 684.000
31.62933 683.000
31.64961 662.000
31.66989 619.000
31.69017 650.000
31.71045 677.000
31.73073 687.000
31.75101 630.000
31.77129 659.000
31.79157 645.000
31.81185 621.000
31.83213 640.000
31.85241 640.000
31.87269 635.000
31.89297 645.000
31.91325 652.000
31.93353 589.000
31.95381 672.000
31.97409 608.000
31.99437 617.000
32.01465 664.000
32.03493 676.000
32.05521 626.000
32.07549 647.000
32.09577 669.000
32.11605 621.000
32.13633 663.000
32.15661 639.000
32.17689 641.000
32.19717 578.000
32.21745 622.000
32.23773 621.000
32.25801 593.000
32.27829 642.000
32.29857 586.000
32.31885 626.000
32.33913 618.000
32.35941 621.000
32.37969 616.000
32.39997 614.000
32.42025 632.000
32.44053 607.000
32.46081 615.000
32.48109 596.000
32.50137 605.000
32.52165 625.000
32.54193 606.000
32.56221 584.000
32.58249 620.000
32.60277 622.000
32.62305 618.000
32.64333 598.000
32.66361 598.000
32.68389 634.000
32.70417 611.000
32.72445 610.000
32.74473 571.000
32.76501 576.000
32.78529 604.000
32.80557 625.000
32.82585 603.000
32.84613 614.000
32.86641 602.000
32.88669 591.000
32.90697 618.000
32.92725 655.000
32.94753 626.000
32.96781 640.000
32.98809 611.000
33.00837 654.000
33.02865 599.000
33.04893 567.000
33.06921 607.000
33.08949 593.000
33.10977 600.000
33.13005 602.000
33.15033 631.000
33.17061 605.000
33.19089 574.000
33.21117 601.000
33.23145 566.000
33.25173 587.000
33.27201 608.000
33.29229 632.000
33.31257 674.000
33.33285 613.000
33.35313 557.000
33.37341 660.000
33.39369 655.000
33.41397 598.000
33.43425 609.000
33.45454 580.000
33.47482 600.000
33.49510 567.000
33.51538 586.000
33.53566 570.000
33.55594 548.000
33.57622 608.000
33.59650 592.000
33.61678 581.000
33.63706 588.000
33.65734 611.000
33.67762 568.000
33.69790 563.000
33.71818 552.000
33.73846 591.000
33.75874 608.000
33.77902 562.000
33.79930 553.000
33.81958 571.000
33.83986 551.000
33.86014 629.000
33.88042 587.000
33.90070 609.000
33.92098 579.000
33.94126 575.000
33.96154 615.000
33.98182 563.000
34.00210 579.000
34.02238 589.000
34.04266 603.000
34.06294 604.000
34.08322 574.000
34.10350 589.000
34.12378 567.000
34.14406 546.000
34.16434 569.000
34.18462 582.000
34.20490 580.000
34.22518 536.000
34.24546 622.000
34.26574 607.000
34.28602 608.000
34.30630 611.000
34.32658 587.000
34.34686 600.000
34.36714 590.000
34.38742 590.000
34.40770 588.000
34.42798 599.000
34.44826 587.000
34.46854 632.000
34.48882 593.000
34.50910 621.000
34.52938 584.000
34.54966 603.000
34.56994 623.000
34.59022 595.000
34.61050 595.000
34.63078 556.000
34.65106 604.000
34.67134 605.000
34.69162 633.000
34.71190 622.000
34.73218 580.000
34.75246 603.000
34.77274 607.000
34.79302 586.000
34.81330 582.000
34.83358 629.000
34.85386 601.000
34.87414 568.000
34.89442 627.000
34.91470 579.000
34.93498 598.000
34.95526 576.000
34.97554 557.000
34.99582 542.000
35.01610 570.000
35.03638 599.000
35.05666 558.000
35.07694 582.000
35.09722 556.000
35.11750 576.000
35.13778 578.000
35.15806 563.000
35.17834 621.000
35.19862 604.000
35.21890 560.000
35.23918 578.000
35.25946 623.000
35.27974 537.000
35.30002 558.000
35.32030 598.000
35.34058 597.000
35.36087 579.000
35.38115 600.000
35.40143 574.000
35.42171 592.000
35.44199 528.000
35.46227 556.000
35.48255 585.000
35.50283 572.000
35.52311 569.000
35.54339 602.000
35.56367 583.000
35.58395 519.000
35.60423 589.000
35.62451 604.000
35.64479 546.000
35.66507 560.000
35.68535 608.000
35.70563 572.000
35.72591 565.000
35.74619 562.000
35.76647 551.000
35.78675 562.000
35.80703 546.000
35.82731 588.000
35.84759 531.000
35.86787 532.000
35.88815 538.000
35.90843 612.000
35.92871 540.000
35.94899 575.000
35.96927 554.000
35.98955 561.000
36.00983 526.000
36.03011 540.000
36.05039 570.000
36.07067 585.000
36.09095 580.000
36.11123 593.000
36.13151 602.000
36.15179 552.000
36.17207 595.000
36.19235 556.000
36.21263 549.000
36.23291 517.000
36.25319 590.000
36.27347 584.000
36.29375 561.000
36.31403 552.000
36.33431 567.000
36.35459 575.000
36.37487 576.000
36.39515 544.000
36.41543 549.000
36.43571 563.000
36.45599 580.000
36.47627 550.000
36.49655 548.000
36.51683 556.000
36.53711 550.000
36.55739 577.000
36.57767 549.000
36.59795 573.000
36.61823 555.000
36.63851 545.000
36.65879 580.000
36.67907 589.000
36.69935 546.000
36.71963 586.000
36.73991 573.000
36.76019 561.000
36.78047 619.000
36.80075 541.000
36.82103 593.000
36.84131 567.000
36.86159 542.000
36.88187 554.000
36.90215 574.000
36.92243 567.000
36.94271 573.000
36.96299 529.000
36.98327 552.000
37.00355 567.000
37.02383 558.000
37.04411 524.000
37.06439 562.000
37.08467 549.000
37.10495 577.000
37.12523 547.000
37.14551 583.000
37.16579 555.000
37.18607 572.000
37.20635 549.000
37.22663 568.000
37.24691 526.000
37.26720 554.000
37.28748 547.000
37.30776 560.000
37.32804 566.000
37.34832 548.000
37.36860 523.000
37.38888 583.000
37.40916 546.000
37.42944 536.000
37.44972 565.000
37.47000 539.000
37.49028 547.000
37.51056 558.000
37.53084 584.000
37.55112 552.000
37.57140 560.000
37.59168 512.000
37.61196 546.000
37.63224 545.000
37.65252 534.000
37.67280 587.000
37.69308 571.000
37.71336 545.000
37.73364 527.000
37.75392 527.000
37.77420 569.000
37.79448 555.000
37.81476 560.000
37.83504 570.000
37.85532 543.000
37.87560 566.000
37.89588 515.000
37.91616 620.000
37.93644 557.000
37.95672 589.000
37.97700 545.000
37.99728 589.000
38.01756 525.000
38.03784 538.000
38.05812 572.000
38.07840 507.000
38.09868 542.000
38.11896 563.000
38.13924 546.000
38.15952 526.000
38.17980 538.000
38.20008 577.000
38.22036 585.000
38.24064 539.000
38.26092 543.000
38.28120 589.000
38.30148 531.000
38.32176 561.000
38.34204 542.000
38.36232 577.000
38.38260 557.000
38.40288 555.000
38.42316 502.000
38.44344 532.000
38.46372 547.000
38.48400 563.000
38.50428 542.000
38.52456 553.000
38.54484 550.000
38.56512 536.000
38.58540 520.000
38.60568 550.000
38.62596 551.000
38.64624 557.000
38.66652 541.000
38.68680 526.000
38.70708 553.000
38.72736 536.000
38.74764 550.000
38.76792 530.000
38.78820 533.000
38.80848 507.000
38.82876 559.000
38.84904 567.000
38.86932 528.000
38.88960 535.000
38.90988 573.000
38.93016 544.000
38.95044 557.000
38.97072 550.000
38.99100 558.000
39.01128 514.000
39.03156 531.000
39.05184 527.000
39.07212 548.000
39.09240 570.000
39.11268 582.000
39.13296 587.000
39.15324 519.000
39.17353 560.000
39.19381 587.000
39.21409 496.000
39.23437 530.000
39.25465 598.000
39.27493 529.000
39.29521 543.000
39.31549 542.000
39.33577 531.000
39.35605 563.000
39.37633 580.000
39.39661 545.000
39.41689 561.000
39.43717 536.000
39.45745 541.000
39.47773 497.000
39.49801 570.000
39.51829 551.000
39.53857 565.000
39.55885 552.000
39.57913 581.000
39.59941 583.000
39.61969 572.000
39.63997 556.000
39.66025 522.000
39.68053 548.000
39.70081 567.000
39.72109 550.000
39.74137 552.000
39.76165 531.000
39.78193 558.000
39.80221 525.000
39.82249 552.000
39.84277 609.000
39.86305 515.000
39.88333 562.000
39.90361 512.000
39.92389 562.000
39.94417 512.000
39.96445 550.000
39.98473 556.000
40.00501 515.000
40.02529 549.000
40.04557 544.000
40.06585 544.000
40.08613 556.000
40.10641 573.000
40.12669 565.000
40.14697 562.000
40.16725 584.000
40.18753 559.000
40.20781 569.000
40.22809 569.000
40.24837 564.000
40.26865 555.000
40.28893 528.000
40.30921 546.000
40.32949 555.000
40.34977 532.000
40.37005 529.000
40.39033 526.000
40.41061 530.000
40.43089 529.000
40.45117 579.000
40.47145 576.000
40.49173 553.000
40.51201 560.000
40.53229 539.000
40.55257 546.000
40.57285 531.000
40.59313 561.000
40.61341 513.000
40.63369 516.000
40.65397 493.000
40.67425 535.000
40.69453 545.000
40.71481 565.000
40.73509 552.000
40.75537 552.000
40.77565 497.000
40.79593 561.000
40.81621 536.000
40.83649 578.000
40.85677 544.000
40.87705 539.000
40.89733 536.000
40.91761 559.000
40.93789 540.000
40.95817 521.000
40.97845 550.000
40.99873 558.000
41.01901 525.000
41.03929 512.000
41.05957 534.000
41.07986 553.000
41.10014 478.000
41.12042 530.000
41.14070 575.000
41.16098 530.000
41.18126 542.000
41.20154 548.000
41.22182 535.000
41.24210 549.000
41.26238 533.000
41.28266 551.000
41.30294 563.000
41.32322 533.000
41.34350 550.000
41.36378 555.000
41.38406 523.000
41.40434 561.000
41.42462 536.000
41.44490 526.000
41.46518 525.000
41.48546 529.000
41.50574 508.000
41.52602 513.000
41.54630 534.000
41.56658 566.000
41.58686 550.000
41.60714 525.000
41.62742 500.000
41.64770 559.000
41.66798 561.000
41.68826 547.000
41.70854 586.000
41.72882 540.000
41.74910 562.000
41.76938 512.000
41.78966 520.000
41.80994 513.000
41.83022 540.000
41.85050 552.000
41.87078 528.000
41.89106 545.000
41.91134 501.000
41.93162 537.000
41.95190 521.000
41.97218 529.000
41.99246 547.000
42.01274 524.000
42.03302 543.000
42.05330 530.000
42.07358 521.000
42.09386 525.000
42.11414 551.000
42.13442 539.000
42.15470 565.000
42.17498 532.000
42.19526 546.000
42.21554 497.000
42.23582 510.000
42.25610 525.000
42.27638 543.000
42.29666 537.000
42.31694 507.000
42.33722 519.000
42.35750 502.000
42.37778 508.000
42.39806 521.000
42.41834 497.000
42.43862 558.000
42.45890 519.000
42.47918 530.000
42.49946 541.000
42.51974 563.000
42.54002 526.000
42.56030 522.000
42.58058 517.000
42.60086 516.000
42.62114 533.000
42.64142 534.000
42.66170 546.000
42.68198 528.000
42.70226 534.000
42.72254 515.000
42.74282 531.000
42.76310 511.000
42.78338 521.000
42.80366 516.000
42.82394 536.000
42.84422 529.000
42.86450 474.000
42.88478 519.000
42.90506 563.000
42.92534 537.000
42.94562 581.000
42.96590 564.000
42.98619 542.000
43.00647 492.000
43.02675 500.000
43.04703 515.000
43.06731 542.000
43.08759 513.000
43.10787 524.000
43.12815 524.000
43.14843 549.000
43.16871 507.000
43.18899 506.000
43.20927 524.000
43.22955 497.000
43.24983 541.000
43.27011 520.000
43.29039 499.000
43.31067 518.000
43.33095 546.000
43.35123 502.000
43.37151 509.000
43.39179 516.000
43.41207 500.000
43.43235 529.000
43.45263 528.000
43.47291 518.000
43.49319 498.000
43.51347 556.000
43.53375 545.000
43.55403 560.000
43.57431 510.000
43.59459 544.000
43.61487 505.000
43.63515 501.000
43.65543 530.000
43.67571 538.000
43.69599 508.000
43.71627 533.000
43.73655 520.000
43.75683 536.000
43.77711 511.000
43.79739 522.000
43.81767 552.000
43.83795 533.000
43.85823 526.000
43.87851 511.000
43.89879 522.000
43.91907 566.000
43.93935 530.000
43.95963 527.000
43.97991 477.000
44.00019 530.000
44.02047 486.000
44.04075 503.000
44.06103 505.000
44.08131 544.000
44.10159 503.000
44.12187 537.000
44.14215 468.000
44.16243 520.000
44.18271 530.000
44.20299 489.000
44.22327 496.000
44.24355 519.000
44.26383 502.000
44.28411 538.000
44.30439 524.000
44.32467 520.000
44.34495 510.000
44.36523 486.000
44.38551 520.000
44.40579 535.000
44.42607 511.000
44.44635 503.000
44.46663 496.000
44.48691 503.000
44.50719 523.000
44.52747 531.000
44.54775 487.000
44.56803 473.000
44.58831 511.000
44.60859 457.000
44.62887 522.000
44.64915 506.000
44.66943 475.000
44.68971 521.000
44.70999 501.000
44.73027 500.000
44.75055 506.000
44.77083 522.000
44.79111 551.000
44.81139 478.000
44.83167 519.000
44.85195 533.000
44.87223 503.000
44.89251 514.000
44.91280 469.000
44.93308 499.000
44.95336 480.000
44.97364 536.000
44.99392 446.000
45.01420 519.000
45.03448 458.000
45.05476 501.000
45.07504 520.000
45.09532 458.000
45.11560 520.000
45.13588 477.000
45.15616 521.000
45.17644 495.000
45.19672 504.000
45.21700 495.000
45.23728 517.000
45.25756 484.000
45.27784 494.000
45.29812 510.000
45.31840 505.000
45.33868 527.000
45.35896 512.000
45.37924 516.000
45.39952 474.000
45.41980 502.000
45.44008 502.000
45.46036 502.000
45.48064 506.000
45.50092 525.000
45.52120 454.000
45.54148 513.000
45.56176 498.000
45.58204 493.000
45.60232 464.000
45.62260 517.000
45.64288 498.000
45.66316 515.000
45.68344 483.000
45.70372 477.000
45.72400 468.000
45.74428 513.000
45.76456 484.000
45.78484 502.000
45.80512 533.000
45.82540 482.000
45.84568 515.000
45.86596 513.000
45.88624 493.000
45.90652 507.000
45.92680 486.000
45.94708 513.000
45.96736 503.000
45.98764 491.000
46.00792 481.000
46.02820 498.000
46.04848 500.000
46.06876 469.000
46.08904 463.000
46.10932 490.000
46.12960 493.000
46.14988 457.000
46.17016 461.000
46.19044 442.000
46.21072 547.000
46.23100 498.000
46.25128 468.000
46.27156 496.000
46.29184 458.000
46.31212 446.000
46.33240 454.000
46.35268 509.000
46.37296 498.000
46.39324 463.000
46.41352 490.000
46.43380 447.000
46.45408 501.000
46.47436 504.000
46.49464 492.000
46.51492 492.000
46.53520 479.000
46.55548 487.000
46.57576 467.000
46.59604 496.000
46.61632 458.000
46.63660 480.000
46.65688 469.000
46.67716 469.000
46.69744 489.000
46.71772 464.000
46.73800 441.000
46.75828 471.000
46.77856 471.000
46.79884 492.000
46.81913 513.000
46.83941 464.000
46.85969 492.000
46.87997 529.000
46.90025 444.000
46.92053 457.000
46.94081 477.000
46.96109 478.000
46.98137 480.000
47.00165 426.000
47.02193 472.000
47.04221 503.000
47.06249 445.000
47.08277 431.000
47.10305 495.000
47.12333 457.000
47.14361 446.000
47.16389 431.000
47.18417 463.000
47.20445 420.000
47.22473 484.000
47.24501 480.000
47.26529 470.000
47.28557 493.000
47.30585 457.000
47.32613 448.000
47.34641 459.000
47.36669 496.000
47.38697 449.000
47.40725 442.000
47.42753 484.000
47.44781 434.000
47.46809 465.000
47.48837 454.000
47.50865 436.000
47.52893 492.000
47.54921 448.000
47.56949 485.000
47.58977 474.000
47.61005 429.000
47.63033 451.000
47.65061 465.000
47.67089 454.000
47.69117 462.000
47.71145 488.000
47.73173 437.000
47.75201 472.000
47.77229 453.000
47.79257 413.000
47.81285 452.000
47.83313 474.000
47.85341 439.000
47.87369 459.000
47.89397 428.000
47.91425 434.000
47.93453 457.000
47.95481 460.000
47.97509 424.000
47.99537 430.000
48.01565 451.000
48.03593 411.000
48.05621 476.000
48.07649 413.000
48.09677 416.000
48.11705 461.000
48.13733 451.000
48.15761 405.000
48.17789 484.000
48.19817 461.000
48.21845 456.000
48.23873 445.000
48.25901 423.000
48.27929 453.000
48.29957 459.000
48.31985 415.000
48.34013 479.000
48.36041 443.000
48.38069 425.000
48.40097 472.000
48.42125 437.000
48.44153 421.000
48.46181 377.000
48.48209 445.000
48.50237 432.000
48.52265 439.000
48.54293 437.000
48.56321 449.000
48.58349 393.000
48.60377 412.000
48.62405 443.000
48.64433 428.000
48.66461 435.000
48.68489 409.000
48.70517 403.000
48.72546 419.000
48.74574 413.000
48.76602 428.000
48.78630 389.000
48.80658 443.000
48.82686 423.000
48.84714 397.000
48.86742 462.000
48.88770 419.000
48.90798 455.000
48.92826 419.000
48.94854 478.000
48.96882 421.000
48.98910 406.000
49.00938 414.000
49.02966 412.000
49.04994 443.000
49.07022 399.000
49.09050 404.000
49.11078 481.000
49.13106 434.000
49.15134 412.000
49.17162 448.000
49.19190 418.000
49.21218 474.000
49.23246 450.000
49.25274 415.000
49.27302 405.000
49.29330 437.000
49.31358 429.000
49.33386 415.000
49.35414 413.000
49.37442 406.000
49.39470 421.000
49.41498 413.000
49.43526 480.000
49.45554 389.000
49.47582 422.000
49.49610 457.000
49.51638 432.000
49.53666 398.000
49.55694 390.000
49.57722 394.000
49.59750 436.000
49.61778 438.000
49.63806 414.000
49.65834 405.000
49.67862 420.000
49.69890 416.000
49.71918 407.000
49.73946 405.000
49.75974 422.000
49.78002 402.000
49.80030 437.000
49.82058 431.000
49.84086 406.000
49.86114 413.000
49.88142 396.000
49.90170 423.000
49.92198 418.000
49.94226 407.000
49.96254 404.000
49.98282 426.000
50.00310 437.000
