4.00155 2407.000
4.02183 2226.000
4.04211 2231.000
4.06239 2214.000
4.08267 2081.000
4.10295 2101.000
4.12323 1988.000
4.14351 2012.000
4.16379 1908.000
4.18407 1899.000
4.20435 1861.000
4.22463 1797.000
4.24491 1725.000
4.26519 1715.000
4.28547 1782.000
4.30575 1757.000
4.32603 1640.000
4.34631 1616.000
4.36659 1571.000
4.38687 1614.000
4.40715 1537.000
4.42743 1448.000
4.44771 1454.000
4.46799 1454.000
4.48827 1457.000
4.50855 1299.000
4.52883 1376.000
4.54911 1380.000
4.56939 1347.000
4.58967 1234.000
4.60995 1295.000
4.63023 1291.000
4.65051 1289.000
4.67079 1318.000
4.69107 1256.000
4.71135 1274.000
4.73163 1170.000
4.75191 1285.000
4.77219 1132.000
4.79247 1225.000
4.81275 1184.000
4.83303 1154.000
4.85331 1248.000
4.87359 1167.000
4.89387 1166.000
4.91415 1147.000
4.93443 1068.000
4.95471 1158.000
4.97499 1083.000
4.99527 1081.000
5.01555 1053.000
5.03583 1077.000
5.05611 1038.000
5.07639 1032.000
5.09667 1137.000
5.11695 1052.000
5.13723 1033.000
5.15751 1055.000
5.17779 1007.000
5.19807 1012.000
5.21835 1015.000
5.23863 985.000
5.25891 934.000
5.27919 1019.000
5.29947 1032.000
5.31975 918.000
5.34003 1008.000
5.36031 939.000
5.38059 945.000
5.40087 902.000
5.42115 982.000
5.44143 927.000
5.46171 917.000
5.48199 920.000
5.50227 964.000
5.52255 950.000
5.54283 950.000
5.56311 934.000
5.58339 963.000
5.60367 942.000
5.62395 816.000
5.64423 919.000
5.66451 942.000
5.68479 830.000
5.70507 857.000
5.72536 923.000
5.74564 916.000
5.76592 902.000
5.78620 885.000
5.80648 895.000
5.82676 858.000
5.84704 866.000
5.86732 828.000
5.88760 909.000
5.90788 860.000
5.92816 848.000
5.94844 909.000
5.96872 833.000
5.98900 846.000
6.00928 846.000
6.02956 816.000
6.04984 880.000
6.07012 800.000
6.09040 835.000
6.11068 804.000
6.13096 835.000
6.15124 792.000
6.17152 831.000
6.19180 826.000
6.21208 839.000
6.23236 782.000
6.25264 824.000
6.27292 847.000
6.29320 894.000
6.31348 903.000
6.33376 787.000
6.35404 881.000
6.37432 839.000
6.39460 813.000
6.41488 849.000
6.43516 868.000
6.45544 869.000
6.47572 930.000
6.49600 858.000
6.51628 830.000
6.53656 861.000
6.55684 908.000
6.57712 959.000
6.59740 897.000
6.61768 901.000
6.63796 947.000
6.65824 1000.000
6.67852 1068.000
6.69880 1116.000
6.71908 1229.000
6.73936 1248.000
6.75964 1338.000
6.77992 1315.000
6.80020 1324.000
6.82048 1311.000
6.84076 1263.000
6.86104 1136.000
6.88132 1024.000
6.90160 934.000
6.92188 878.000
6.94216 836.000
6.96244 917.000
6.98272 801.000
7.00300 796.000
7.02328 847.000
7.04356 816.000
7.06384 773.000
7.08412 817.000
7.10440 793.000
7.12468 803.000
7.14496 786.000
7.16524 804.000
7.18552 720.000
7.20580 817.000
7.22608 802.000
7.24636 765.000
7.26664 823.000
7.28692 767.000
7.30720 760.000
7.32748 778.000
7.34776 766.000
7.36804 714.000
7.38832 761.000
7.40860 737.000
7.42888 760.000
7.44916 772.000
7.46944 787.000
7.48972 792.000
7.51000 779.000
7.53028 818.000
7.55056 771.000
7.57084 754.000
7.59112 790.000
7.61140 754.000
7.63168 783.000
7.65197 765.000
7.67225 723.000
7.69253 782.000
7.71281 779.000
7.73309 768.000
7.75337 673.000
7.77365 770.000
7.79393 804.000
7.81421 767.000
7.83449 730.000
7.85477 803.000
7.87505 728.000
7.89533 752.000
7.91561 756.000
7.93589 754.000
7.95617 769.000
7.97645 730.000
7.99673 725.000
8.01701 798.000
8.03729 765.000
8.05757 828.000
8.07785 732.000
8.09813 804.000
8.11841 807.000
8.13869 817.000
8.15897 813.000
8.17925 837.000
8.19953 869.000
8.21981 835.000
8.24009 901.000
8.26037 995.000
8.28065 1092.000
8.30093 1148.000
8.32121 1149.000
8.34149 1226.000
8.36177 1267.000
8.38205 1267.000
8.40233 1179.000
8.42261 1039.000
8.44289 911.000
8.46317 846.000
8.48345 842.000
8.50373 855.000
8.52401 821.000
8.54429 788.000
8.56457 793.000
8.58485 753.000
8.60513 766.000
8.62541 760.000
8.64569 798.000
8.66597 723.000
8.68625 731.000
8.70653 703.000
8.72681 740.000
8.74709 757.000
8.76737 683.000
8.78765 743.000
8.80793 675.000
8.82821 705.000
8.84849 663.000
8.86877 664.000
8.88905 738.000
8.90933 682.000
8.92961 704.000
8.94989 730.000
8.97017 707.000
8.99045 691.000
9.01073 698.000
9.03101 719.000
9.05129 667.000
9.07157 702.000
9.09185 669.000
9.11213 688.000
9.13241 712.000
9.15269 626.000
9.17297 684.000
9.19325 646.000
9.21353 655.000
9.23381 694.000
9.25409 718.000
9.27437 709.000
9.29465 674.000
9.31493 724.000
9.33521 675.000
9.35549 707.000
9.37577 616.000
9.39605 672.000
9.41633 660.000
9.43661 665.000
9.45689 687.000
9.47717 686.000
9.49745 668.000
9.51773 678.000
9.53801 635.000
9.55830 671.000
9.57858 669.000
9.59886 657.000
9.61914 665.000
9.63942 605.000
9.65970 695.000
9.67998 676.000
9.70026 670.000
9.72054 662.000
9.74082 649.000
9.76110 713.000
9.78138 694.000
9.80166 657.000
9.82194 689.000
9.84222 666.000
9.86250 644.000
9.88278 659.000
9.90306 634.000
9.92334 670.000
9.94362 676.000
9.96390 647.000
9.98418 615.000
10.00446 655.000
10.02474 660.000
10.04502 692.000
10.06530 587.000
10.08558 657.000
10.10586 688.000
10.12614 717.000
10.14642 627.000
10.16670 620.000
10.18698 632.000
10.20726 662.000
10.22754 677.000
10.24782 626.000
10.26810 642.000
10.28838 620.000
10.30866 668.000
10.32894 652.000
10.34922 658.000
10.36950 661.000
10.38978 649.000
10.41006 693.000
10.43034 677.000
10.45062 675.000
10.47090 673.000
10.49118 734.000
10.51146 724.000
10.53174 685.000
10.55202 647.000
10.57230 656.000
10.59258 746.000
10.61286 684.000
10.63314 701.000
10.65342 691.000
10.67370 637.000
10.69398 631.000
10.71426 654.000
10.73454 642.000
10.75482 664.000
10.77510 626.000
10.79538 648.000
10.81566 614.000
10.83594 667.000
10.85622 661.000
10.87650 600.000
10.89678 652.000
10.91706 659.000
10.93734 664.000
10.95762 675.000
10.97790 651.000
10.99818 641.000
11.01846 628.000
11.03874 627.000
11.05902 676.000
11.07930 610.000
11.09958 627.000
11.11986 634.000
11.14014 640.000
11.16042 671.000
11.18070 662.000
11.20098 665.000
11.22126 619.000
11.24154 644.000
11.26182 623.000
11.28210 645.000
11.30238 648.000
11.32266 665.000
11.34294 625.000
11.36322 647.000
11.38350 584.000
11.40378 645.000
11.42406 664.000
11.44434 679.000
11.46463 661.000
11.48491 678.000
11.50519 650.000
11.52547 699.000
11.54575 637.000
11.56603 676.000
11.58631 649.000
11.60659 661.000
11.62687 609.000
11.64715 643.000
11.66743 617.000
11.68771 703.000
11.70799 694.000
11.72827 696.000
11.74855 663.000
11.76883 643.000
11.78911 629.000
11.80939 651.000
11.82967 631.000
11.84995 677.000
11.87023 692.000
11.89051 709.000
11.91079 645.000
11.93107 743.000
11.95135 655.000
11.97163 645.000
11.99191 633.000
12.01219 703.000
12.03247 640.000
12.05275 688.000
12.07303 677.000
12.09331 644.000
12.11359 636.000
12.13387 698.000
12.15415 670.000
12.17443 707.000
12.19471 628.000
12.21499 681.000
12.23527 646.000
12.25555 679.000
12.27583 673.000
12.29611 647.000
12.31639 642.000
12.33667 673.000
12.35695 698.000
12.37723 714.000
12.39751 673.000
12.41779 697.000
12.43807 717.000
12.45835 721.000
12.47863 652.000
12.49891 652.000
12.51919 664.000
12.53947 676.000
12.55975 703.000
12.58003 721.000
12.60031 664.000
12.62059 707.000
12.64087 708.000
12.66115 698.000
12.68143 683.000
12.70171 731.000
12.72199 658.000
12.74227 678.000
12.76255 723.000
12.78283 722.000
12.80311 690.000
12.82339 719.000
12.84367 740.000
12.86395 709.000
12.88423 712.000
12.90451 673.000
12.92479 742.000
12.94507 695.000
12.96535 716.000
12.98563 718.000
13.00591 760.000
13.02619 727.000
13.04647 716.000
13.06675 759.000
13.08703 712.000
13.10731 697.000
13.12759 728.000
13.14787 747.000
13.16815 771.000
13.18843 799.000
13.20871 826.000
13.22899 780.000
13.24927 735.000
13.26955 825.000
13.28983 854.000
13.31011 858.000
13.33039 802.000
13.35067 814.000
13.37096 856.000
13.39124 806.000
13.41152 833.000
13.43180 836.000
13.45208 881.000
13.47236 841.000
13.49264 820.000
13.51292 909.000
13.53320 862.000
13.55348 884.000
13.57376 861.000
13.59404 845.000
13.61432 842.000
13.63460 818.000
13.65488 815.000
13.67516 868.000
13.69544 895.000
13.71572 813.000
13.73600 864.000
13.75628 796.000
13.77656 806.000
13.79684 738.000
13.81712 837.000
13.83740 819.000
13.85768 774.000
13.87796 837.000
13.89824 788.000
13.91852 811.000
13.93880 796.000
13.95908 854.000
13.97936 837.000
13.99964 835.000
14.01992 880.000
14.04020 832.000
14.06048 811.000
14.08076 864.000
14.10104 790.000
14.12132 786.000
14.14160 847.000
14.16188 800.000
14.18216 838.000
14.20244 863.000
14.22272 816.000
14.24300 778.000
14.26328 848.000
14.28356 836.000
14.30384 855.000
14.32412 858.000
14.34440 871.000
14.36468 831.000
14.38496 802.000
14.40524 801.000
14.42552 800.000
14.44580 833.000
14.46608 825.000
14.48636 859.000
14.50664 902.000
14.52692 941.000
14.54720 903.000
14.56748 972.000
14.58776 974.000
14.60804 976.000
14.62832 1005.000
14.64860 1083.000
14.66888 1049.000
14.68916 1001.000
14.70944 963.000
14.72972 975.000
14.75000 980.000
14.77028 902.000
14.79056 933.000
14.81084 963.000
14.83112 988.000
14.85140 1028.000
14.87168 985.000
14.89196 990.000
14.91224 987.000
14.93252 1030.000
14.95280 990.000
14.97308 1003.000
14.99336 950.000
15.01364 913.000
15.03392 883.000
15.05420 912.000
15.07448 981.000
15.09476 948.000
15.11504 910.000
15.13532 1021.000
15.15560 940.000
15.17588 972.000
15.19616 939.000
15.21644 962.000
15.23672 960.000
15.25700 929.000
15.27729 915.000
15.29757 970.000
15.31785 971.000
15.33813 943.000
15.35841 1012.000
15.37869 931.000
15.39897 960.000
15.41925 998.000
15.43953 992.000
15.45981 984.000
15.48009 1052.000
15.50037 945.000
15.52065 979.000
15.54093 987.000
15.56121 988.000
15.58149 989.000
15.60177 1042.000
15.62205 1033.000
15.64233 1036.000
15.66261 1021.000
15.68289 1028.000
15.70317 989.000
15.72345 1006.000
15.74373 1082.000
15.76401 1062.000
15.78429 1106.000
15.80457 989.000
15.82485 1054.000
15.84513 1046.000
15.86541 1068.000
15.88569 1039.000
15.90597 1140.000
15.92625 1074.000
15.94653 1084.000
15.96681 1109.000
15.98709 1124.000
16.00737 1145.000
16.02765 1096.000
16.04793 1157.000
16.06821 1091.000
16.08849 1180.000
16.10877 1156.000
16.12905 1174.000
16.14933 1181.000
16.16961 1155.000
16.18989 1207.000
16.21017 1165.000
16.23045 1245.000
16.25073 1272.000
16.27101 1309.000
16.29129 1304.000
16.31157 1372.000
16.33185 1419.000
16.35213 1505.000
16.37241 1445.000
16.39269 1431.000
16.41297 1443.000
16.43325 1361.000
16.45353 1375.000
16.47381 1341.000
16.49409 1251.000
16.51437 1409.000
16.53465 1284.000
16.55493 1415.000
16.57521 1410.000
16.59549 1397.000
16.61577 1402.000
16.63605 1405.000
16.65633 1431.000
16.67661 1423.000
16.69689 1396.000
16.71717 1472.000
16.73745 1460.000
16.75773 1476.000
16.77801 1473.000
16.79829 1501.000
16.81857 1608.000
16.83885 1500.000
16.85913 1523.000
16.87941 1452.000
16.89969 1466.000
16.91997 1402.000
16.94025 1493.000
16.96053 1511.000
16.98081 1562.000
17.00109 1611.000
17.02137 1605.000
17.04165 1683.000
17.06193 1783.000
17.08221 1711.000
17.10249 1784.000
17.12277 1793.000
17.14305 1619.000
17.16333 1605.000
17.18362 1550.000
17.20390 1546.000
17.22418 1488.000
17.24446 1496.000
17.26474 1465.000
17.28502 1500.000
17.30530 1454.000
17.32558 1488.000
17.34586 1449.000
17.36614 1480.000
17.38642 1520.000
17.40670 1426.000
17.42698 1448.000
17.44726 1401.000
17.46754 1506.000
17.48782 1492.000
17.50810 1437.000
17.52838 1472.000
17.54866 1483.000
17.56894 1475.000
17.58922 1500.000
17.60950 1510.000
17.62978 1463.000
17.65006 1500.000
17.67034 1533.000
17.69062 1548.000
17.71090 1523.000
17.73118 1643.000
17.75146 1572.000
17.77174 1595.000
17.79202 1591.000
17.81230 1599.000
17.83258 1684.000
17.85286 1657.000
17.87314 1627.000
17.89342 1665.000
17.91370 1779.000
17.93398 1800.000
17.95426 1880.000
17.97454 1944.000
17.99482 2028.000
18.01510 2081.000
18.03538 2160.000
18.05566 2210.000
18.07594 2219.000
18.09622 2276.000
18.11650 2199.000
18.13678 2194.000
18.15706 1910.000
18.17734 1911.000
18.19762 1782.000
18.21790 1775.000
18.23818 1724.000
18.25846 1807.000
18.27874 1756.000
18.29902 1743.000
18.31930 1699.000
18.33958 1761.000
18.35986 1698.000
18.38014 1813.000
18.40042 1662.000
18.42070 1629.000
18.44098 1837.000
18.46126 1793.000
18.48154 1720.000
18.50182 1751.000
18.52210 1737.000
18.54238 1763.000
18.56266 1895.000
18.58294 1823.000
18.60322 1846.000
18.62350 1938.000
18.64378 1885.000
18.66406 1973.000
18.68434 1968.000
18.70462 1995.000
18.72490 1922.000
18.74518 1924.000
18.76546 1823.000
18.78574 1801.000
18.80602 1742.000
18.82630 1861.000
18.84658 1799.000
18.86686 1850.000
18.88714 1735.000
18.90742 1804.000
18.92770 1838.000
18.94798 1749.000
18.96826 1848.000
18.98854 1960.000
19.00882 1844.000
19.02910 1767.000
19.04938 1844.000
19.06966 1847.000
19.08995 1798.000
19.11023 1784.000
19.13051 1732.000
19.15079 1806.000
19.17107 1780.000
19.19135 1736.000
19.21163 1810.000
19.23191 1693.000
19.25219 1733.000
19.27247 1771.000
19.29275 1761.000
19.31303 1817.000
19.33331 1802.000
19.35359 1789.000
19.37387 1909.000
19.39415 1967.000
19.41443 2008.000
19.43471 1964.000
19.45499 1981.000
19.47527 2153.000
19.49555 2121.000
19.51583 2066.000
19.53611 2121.000
19.55639 1939.000
19.57667 1968.000
19.59695 2009.000
19.61723 1991.000
19.63751 1935.000
19.65779 1917.000
19.67807 1839.000
19.69835 1900.000
19.71863 1977.000
19.73891 1892.000
19.75919 1836.000
19.77947 2066.000
19.79975 1958.000
19.82003 2063.000
19.84031 2102.000
19.86059 2107.000
19.88087 2094.000
19.90115 2106.000
19.92143 2055.000
19.94171 2118.000
19.96199 2110.000
19.98227 1996.000
20.00255 1942.000
20.02283 1997.000
20.04311 1957.000
20.06339 1879.000
20.08367 1897.000
20.10395 1881.000
20.12423 1931.000
20.14451 1950.000
20.16479 1963.000
20.18507 1941.000
20.20535 2038.000
20.22563 1926.000
20.24591 2039.000
20.26619 2014.000
20.28647 1969.000
20.30675 2040.000
20.32703 2175.000
20.34731 2018.000
20.36759 2039.000
20.38787 1986.000
20.40815 1832.000
20.42843 1876.000
20.44871 1822.000
20.46899 1719.000
20.48927 1765.000
20.50955 1747.000
20.52983 1699.000
20.55011 1686.000
20.57039 1724.000
20.59067 1630.000
20.61095 1648.000
20.63123 1762.000
20.65151 1601.000
20.67179 1595.000
20.69207 1683.000
20.71235 1658.000
20.73263 1666.000
20.75291 1650.000
20.77319 1601.000
20.79347 1624.000
20.81375 1644.000
20.83403 1632.000
20.85431 1646.000
20.87459 1579.000
20.89487 1590.000
20.91515 1561.000
20.93543 1687.000
20.95571 1551.000
20.97599 1685.000
20.99628 1716.000
21.01656 1615.000
21.03684 1637.000
21.05712 1679.000
21.07740 1716.000
21.09768 1672.000
21.11796 1699.000
21.13824 1652.000
21.15852 1715.000
21.17880 1875.000
21.19908 1831.000
21.21936 1775.000
21.23964 1851.000
21.25992 1905.000
21.28020 1967.000
21.30048 2034.000
21.32076 2056.000
21.34104 2261.000
21.36132 2295.000
21.38160 2348.000
21.40188 2318.000
21.42216 2472.000
21.44244 2410.000
21.46272 2514.000
21.48300 2452.000
21.50328 2525.000
21.52356 2621.000
21.54384 2499.000
21.56412 2354.000
21.58440 2383.000
21.60468 2439.000
21.62496 2350.000
21.64524 2251.000
21.66552 2245.000
21.68580 1960.000
21.70608 1933.000
21.72636 1865.000
21.74664 1713.000
21.76692 1645.000
21.78720 1664.000
21.80748 1556.000
21.82776 1581.000
21.84804 1546.000
21.86832 1483.000
21.88860 1527.000
21.90888 1490.000
21.92916 1468.000
21.94944 1347.000
21.96972 1430.000
21.99000 1403.000
22.01028 1510.000
22.03056 1485.000
22.05084 1430.000
22.07112 1406.000
22.09140 1407.000
22.11168 1386.000
22.13196 1370.000
22.15224 1431.000
22.17252 1457.000
22.19280 1417.000
22.21308 1377.000
22.23336 1362.000
22.25364 1361.000
22.27392 1378.000
22.29420 1345.000
22.31448 1438.000
22.33476 1448.000
22.35504 1366.000
22.37532 1310.000
22.39560 1386.000
22.41588 1447.000
22.43616 1438.000
22.45644 1416.000
22.47672 1382.000
22.49700 1399.000
22.51728 1459.000
22.53756 1418.000
22.55784 1355.000
22.57812 1269.000
22.59840 1321.000
22.61868 1399.000
22.63896 1312.000
22.65924 1291.000
22.67952 1326.000
22.69980 1374.000
22.72008 1318.000
22.74036 1348.000
22.76064 1335.000
22.78092 1319.000
22.80120 1331.000
22.82148 1303.000
22.84176 1299.000
22.86204 1323.000
22.88232 1341.000
22.90261 1260.000
22.92289 1391.000
22.94317 1331.000
22.96345 1247.000
22.98373 1232.000
23.00401 1307.000
23.02429 1282.000
23.04457 1304.000
23.06485 1287.000
23.08513 1223.000
23.10541 1171.000
23.12569 1273.000
23.14597 1284.000
23.16625 1222.000
23.18653 1252.000
23.20681 1147.000
23.22709 1239.000
23.24737 1280.000
23.26765 1190.000
23.28793 1287.000
23.30821 1299.000
23.32849 1262.000
23.34877 1366.000
23.36905 1311.000
23.38933 1313.000
23.40961 1425.000
23.42989 1335.000
23.45017 1393.000
23.47045 1483.000
23.49073 1431.000
23.51101 1423.000
23.53129 1449.000
23.55157 1441.000
23.57185 1394.000
23.59213 1388.000
23.61241 1340.000
23.63269 1326.000
23.65297 1279.000
23.67325 1237.000
23.69353 1198.000
23.71381 1301.000
23.73409 1194.000
23.75437 1239.000
23.77465 1293.000
23.79493 1215.000
23.81521 1096.000
23.83549 1164.000
23.85577 1197.000
23.87605 1142.000
23.89633 1119.000
23.91661 1151.000
23.93689 1176.000
23.95717 1144.000
23.97745 1092.000
23.99773 1196.000
24.01801 1073.000
24.03829 1135.000
24.05857 1091.000
24.07885 1059.000
24.09913 1154.000
24.11941 1146.000
24.13969 1140.000
24.15997 1131.000
24.18025 1151.000
24.20053 1179.000
24.22081 1141.000
24.24109 1146.000
24.26137 1132.000
24.28165 1161.000
24.30193 1151.000
24.32221 1173.000
24.34249 1222.000
24.36277 1162.000
24.38305 1212.000
24.40333 1167.000
24.42361 1257.000
24.44389 1160.000
24.46417 1168.000
24.48445 1164.000
24.50473 1145.000
24.52501 1114.000
24.54529 1096.000
24.56557 1027.000
24.58585 1073.000
24.60613 1028.000
24.62641 1013.000
24.64669 1120.000
24.66697 1008.000
24.68725 1115.000
24.70753 1073.000
24.72781 1032.000
24.74809 1105.000
24.76837 1040.000
24.78865 996.000
24.80893 1021.000
24.82922 999.000
24.84950 1022.000
24.86978 1024.000
24.89006 1054.000
24.91034 1128.000
24.93062 998.000
24.95090 992.000
24.97118 1055.000
24.99146 1054.000
25.01174 1056.000
25.03202 1099.000
25.05230 998.000
25.07258 1045.000
25.09286 1103.000
25.11314 1120.000
25.13342 1064.000
25.15370 1097.000
25.17398 1051.000
25.19426 1122.000
25.21454 1113.000
25.23482 1063.000
25.25510 1099.000
25.27538 1061.000
25.29566 1009.000
25.31594 995.000
25.33622 1037.000
25.35650 1011.000
25.37678 1031.000
25.39706 1026.000
25.41734 964.000
25.43762 970.000
25.45790 1040.000
25.47818 996.000
25.49846 1084.000
25.51874 1059.000
25.53902 1053.000
25.55930 928.000
25.57958 1032.000
25.59986 997.000
25.62014 934.000
25.64042 876.000
25.66070 948.000
25.68098 937.000
25.70126 978.000
25.72154 981.000
25.74182 938.000
25.76210 982.000
25.78238 962.000
25.80266 911.000
25.82294 927.000
25.84322 941.000
25.86350 961.000
25.88378 923.000
25.90406 989.000
25.92434 1016.000
25.94462 949.000
25.96490 1038.000
25.98518 1002.000
26.00546 1040.000
26.02574 1041.000
26.04602 1060.000
26.06630 1038.000
26.08658 1023.000
26.10686 969.000
26.12714 1023.000
26.14742 992.000
26.16770 996.000
26.18798 943.000
26.20826 987.000
26.22854 955.000
26.24882 904.000
26.26910 992.000
26.28938 917.000
26.30966 955.000
26.32994 906.000
26.35022 907.000
26.37050 1007.000
26.39078 974.000
26.41106 958.000
26.43134 999.000
26.45162 954.000
26.47190 997.000
26.49218 955.000
26.51246 952.000
26.53274 944.000
26.55302 945.000
26.57330 930.000
26.59358 894.000
26.61386 972.000
26.63414 953.000
26.65442 958.000
26.67470 969.000
26.69498 898.000
26.71526 918.000
26.73555 910.000
26.75583 901.000
26.77611 921.000
26.79639 988.000
26.81667 892.000
26.83695 965.000
26.85723 918.000
26.87751 929.000
26.89779 984.000
26.91807 945.000
26.93835 993.000
26.95863 943.000
26.97891 929.000
26.99919 948.000
27.01947 909.000
27.03975 991.000
27.06003 969.000
27.08031 940.000
27.10059 921.000
27.12087 914.000
27.14115 896.000
27.16143 868.000
27.18171 803.000
27.20199 873.000
27.22227 833.000
27.24255 883.000
27.26283 856.000
27.28311 889.000
27.30339 868.000
27.32367 836.000
27.34395 824.000
27.36423 866.000
27.38451 874.000
27.40479 929.000
27.42507 891.000
27.44535 876.000
27.46563 880.000
27.48591 904.000
27.50619 834.000
27.52647 880.000
27.54675 858.000
27.56703 871.000
27.58731 804.000
27.60759 838.000
27.62787 791.000
27.64815 822.000
27.66843 738.000
27.68871 780.000
27.70899 772.000
27.72927 766.000
27.74955 793.000
27.76983 747.000
27.79011 745.000
27.81039 746.000
27.83067 741.000
27.85095 734.000
27.87123 727.000
27.89151 746.000
27.91179 720.000
27.93207 807.000
27.95235 667.000
27.97263 769.000
27.99291 768.000
28.01319 775.000
28.03347 729.000
28.05375 703.000
28.07403 741.000
28.09431 711.000
28.11459 731.000
28.13487 751.000
28.15515 738.000
28.17543 684.000
28.19571 731.000
28.21599 764.000
28.23627 783.000
28.25655 788.000
28.27683 781.000
28.29711 786.000
28.31739 767.000
28.33767 738.000
28.35795 775.000
28.37823 792.000
28.39851 790.000
28.41879 834.000
28.43907 786.000
28.45935 756.000
28.47963 762.000
28.49991 769.000
28.52019 820.000
28.54047 805.000
28.56075 813.000
28.58103 783.000
28.60131 799.000
28.62159 787.000
28.64188 767.000
28.66216 792.000
28.68244 755.000
28.70272 739.000
28.72300 770.000
28.74328 740.000
28.76356 724.000
28.78384 721.000
28.80412 698.000
28.82440 728.000
28.84468 718.000
28.86496 741.000
28.88524 721.000
28.90552 769.000
28.92580 742.000
28.94608 766.000
28.96636 686.000
28.98664 740.000
29.00692 729.000
29.02720 781.000
29.04748 787.000
29.06776 741.000
29.08804 772.000
29.10832 734.000
29.12860 763.000
29.14888 736.000
29.16916 769.000
29.18944 707.000
29.20972 717.000
29.23000 768.000
29.25028 719.000
29.27056 711.000
29.29084 740.000
29.31112 711.000
29.33140 718.000
29.35168 744.000
29.37196 736.000
29.39224 715.000
29.41252 727.000
29.43280 723.000
29.45308 683.000
29.47336 741.000
29.49364 730.000
29.51392 716.000
29.53420 799.000
29.55448 690.000
29.57476 738.000
29.59504 696.000
29.61532 692.000
29.63560 697.000
29.65588 738.000
29.67616 735.000
29.69644 733.000
29.71672 749.000
29.73700 730.000
29.75728 668.000
29.77756 685.000
29.79784 678.000
29.81812 693.000
29.83840 789.000
29.85868 751.000
29.87896 738.000
29.89924 705.000
29.91952 688.000
29.93980 720.000
29.96008 692.000
29.98036 677.000
30.00064 744.000
30.02092 689.000
30.04120 704.000
30.06148 687.000
30.08176 717.000
30.10204 677.000
30.12232 648.000
30.14260 673.000
30.16288 649.000
30.18316 708.000
30.20344 659.000
30.22372 662.000
30.24400 661.000
30.26428 715.000
30.28456 690.000
30.30484 695.000
30.32512 655.000
30.34540 717.000
30.36568 678.000
30.38596 648.000
30.40624 666.000
30.42652 671.000
30.44680 716.000
30.46708 614.000
30.48736 638.000
30.50764 673.000
30.52792 653.000
30.54821 632.000
30.56849 604.000
30.58877 589.000
30.60905 644.000
30.62933 586.000
30.64961 617.000
30.66989 637.000
30.69017 604.000
30.71045 595.000
30.73073 604.000
30.75101 587.000
30.77129 623.000
30.79157 644.000
30.81185 630.000
30.83213 624.000
30.85241 631.000
30.87269 646.000
30.89297 570.000
30.91325 621.000
30.93353 651.000
30.95381 599.000
30.97409 588.000
30.99437 613.000
31.01465 586.000
31.03493 582.000
31.05521 644.000
31.07549 662.000
31.09577 595.000
31.11605 674.000
31.13633 645.000
31.15661 621.000
31.17689 631.000
31.19717 654.000
31.21745 605.000
31.23773 615.000
31.25801 587.000
31.27829 631.000
31.29857 619.000
31.31885 599.000
31.33913 614.000
31.35941 587.000
31.37969 581.000
31.39997 609.000
31.42025 567.000
31.44053 540.000
31.46081 638.000
31.48109 636.000
31.50137 598.000
31.52165 557.000
31.54193 627.000
31.56221 602.000
31.58249 620.000
31.60277 599.000
31.62305 580.000
31.64333 623.000
31.66361 644.000
31.68389 606.000
31.70417 669.000
31.72445 609.000
31.74473 601.000
31.76501 620.000
31.78529 617.000
31.80557 602.000
31.82585 603.000
31.84613 597.000
31.86641 611.000
31.88669 623.000
31.90697 600.000
31.92725 590.000
31.94753 568.000
31.96781 597.000
31.98809 563.000
32.00837 657.000
32.02865 596.000
32.04893 595.000
32.06921 614.000
32.08949 558.000
32.10977 595.000
32.13005 533.000
32.15033 549.000
32.17061 595.000
32.19089 582.000
32.21117 570.000
32.23145 583.000
32.25173 592.000
32.27201 572.000
32.29229 566.000
32.31257 535.000
32.33285 578.000
32.35313 568.000
32.37341 542.000
32.39369 598.000
32.41397 579.000
32.43425 601.000
32.45454 603.000
32.47482 598.000
32.49510 553.000
32.51538 560.000
32.53566 575.000
32.55594 546.000
32.57622 598.000
32.59650 558.000
32.61678 531.000
32.63706 540.000
32.65734 574.000
32.67762 523.000
32.69790 590.000
32.71818 528.000
32.73846 574.000
32.75874 568.000
32.77902 555.000
32.79930 547.000
32.81958 539.000
32.83986 556.000
32.86014 593.000
32.88042 582.000
32.90070 563.000
32.92098 536.000
32.94126 572.000
32.96154 568.000
32.98182 557.000
33.00210 602.000
33.02238 528.000
33.04266 576.000
33.06294 541.000
33.08322 553.000
33.10350 532.000
33.12378 575.000
33.14406 574.000
33.16434 565.000
33.18462 540.000
33.20490 563.000
33.22518 587.000
33.24546 562.000
33.26574 613.000
33.28602 613.000
33.30630 609.000
33.32658 532.000
33.34686 577.000
33.36714 562.000
33.38742 562.000
33.40770 569.000
33.42798 583.000
33.44826 547.000
33.46854 539.000
33.48882 555.000
33.50910 560.000
33.52938 538.000
33.54966 560.000
33.56994 550.000
33.59022 548.000
33.61050 489.000
33.63078 536.000
33.65106 553.000
33.67134 503.000
33.69162 515.000
33.71190 564.000
33.73218 528.000
33.75246 550.000
33.77274 597.000
33.79302 571.000
33.81330 583.000
33.83358 530.000
33.85386 525.000
33.87414 535.000
33.89442 560.000
33.91470 531.000
33.93498 543.000
33.95526 564.000
33.97554 559.000
33.99582 602.000
34.01610 535.000
34.03638 533.000
34.05666 525.000
34.07694 596.000
34.09722 542.000
34.11750 549.000
34.13778 559.000
34.15806 603.000
34.17834 553.000
34.19862 566.000
34.21890 582.000
34.23918 557.000
34.25946 549.000
34.27974 585.000
34.30002 539.000
34.32030 525.000
34.34058 587.000
34.36087 561.000
34.38115 537.000
34.40143 597.000
34.42171 620.000
34.44199 627.000
34.46227 571.000
34.48255 621.000
34.50283 596.000
34.52311 587.000
34.54339 598.000
34.56367 667.000
34.58395 588.000
34.60423 676.000
34.62451 642.000
34.64479 619.000
34.66507 628.000
34.68535 620.000
34.70563 591.000
34.72591 611.000
34.74619 575.000
34.76647 587.000
34.78675 600.000
34.80703 562.000
34.82731 589.000
34.84759 593.000
34.86787 604.000
34.88815 576.000
34.90843 602.000
34.92871 580.000
34.94899 582.000
34.96927 567.000
34.98955 645.000
35.00983 549.000
35.03011 530.000
35.05039 557.000
35.07067 552.000
35.09095 539.000
35.11123 584.000
35.13151 552.000
35.15179 572.000
35.17207 593.000
35.19235 514.000
35.21263 540.000
35.23291 571.000
35.25319 564.000
35.27347 561.000
35.29375 573.000
35.31403 531.000
35.33431 582.000
35.35459 545.000
35.37487 550.000
35.39515 543.000
35.41543 520.000
35.43571 495.000
35.45599 537.000
35.47627 540.000
35.49655 577.000
35.51683 517.000
35.53711 533.000
35.55739 560.000
35.57767 540.000
35.59795 498.000
35.61823 553.000
35.63851 550.000
35.65879 530.000
35.67907 544.000
35.69935 552.000
35.71963 547.000
35.73991 518.000
35.76019 526.000
35.78047 524.000
35.80075 502.000
35.82103 538.000
35.84131 502.000
35.86159 510.000
35.88187 542.000
35.90215 526.000
35.92243 516.000
35.94271 497.000
35.96299 511.000
35.98327 497.000
36.00355 539.000
36.02383 508.000
36.04411 513.000
36.06439 536.000
36.08467 528.000
36.10495 536.000
36.12523 515.000
36.14551 570.000
36.16579 497.000
36.18607 539.000
36.20635 533.000
36.22663 537.000
36.24691 505.000
36.26720 567.000
36.28748 530.000
36.30776 519.000
36.32804 603.000
36.34832 523.000
36.36860 506.000
36.38888 530.000
36.40916 510.000
36.42944 573.000
36.44972 524.000
36.47000 523.000
36.49028 517.000
36.51056 537.000
36.53084 544.000
36.55112 504.000
36.57140 556.000
36.59168 512.000
36.61196 539.000
36.63224 550.000
36.65252 545.000
36.67280 505.000
36.69308 548.000
36.71336 546.000
36.73364 536.000
36.75392 491.000
36.77420 559.000
36.79448 584.000
36.81476 544.000
36.83504 610.000
36.85532 575.000
36.87560 567.000
36.89588 543.000
36.91616 567.000
36.93644 560.000
36.95672 546.000
36.97700 522.000
36.99728 513.000
37.01756 508.000
37.03784 544.000
37.05812 517.000
37.07840 533.000
37.09868 521.000
37.11896 538.000
37.13924 520.000
37.15952 511.000
37.17980 519.000
37.20008 533.000
37.22036 496.000
37.24064 520.000
37.26092 516.000
37.28120 536.000
37.30148 539.000
37.32176 529.000
37.34204 560.000
37.36232 524.000
37.38260 512.000
37.40288 523.000
37.42316 531.000
37.44344 500.000
37.46372 491.000
37.48400 516.000
37.50428 513.000
37.52456 531.000
37.54484 463.000
37.56512 474.000
37.58540 523.000
37.60568 535.000
37.62596 539.000
37.64624 559.000
37.66652 557.000
37.68680 529.000
37.70708 500.000
37.72736 559.000
37.74764 557.000
37.76792 553.000
37.78820 530.000
37.80848 501.000
37.82876 503.000
37.84904 512.000
37.86932 544.000
37.88960 559.000
37.90988 509.000
37.93016 524.000
37.95044 561.000
37.97072 592.000
37.99100 563.000
38.01128 491.000
38.03156 545.000
38.05184 545.000
38.07212 524.000
38.09240 544.000
38.11268 548.000
38.13296 510.000
38.15324 513.000
38.17353 528.000
38.19381 510.000
38.21409 518.000
38.23437 509.000
38.25465 536.000
38.27493 499.000
38.29521 534.000
38.31549 522.000
38.33577 507.000
38.35605 521.000
38.37633 518.000
38.39661 509.000
38.41689 501.000
38.43717 524.000
38.45745 524.000
38.47773 518.000
38.49801 539.000
38.51829 512.000
38.53857 498.000
38.55885 504.000
38.57913 534.000
38.59941 527.000
38.61969 548.000
38.63997 543.000
38.66025 499.000
38.68053 511.000
38.70081 525.000
38.72109 503.000
38.74137 512.000
38.76165 526.000
38.78193 494.000
38.80221 516.000
38.82249 508.000
38.84277 506.000
38.86305 494.000
38.88333 498.000
38.90361 518.000
38.92389 512.000
38.94417 525.000
38.96445 546.000
38.98473 511.000
39.00501 492.000
39.02529 523.000
39.04557 475.000
39.06585 567.000
39.08613 524.000
39.10641 552.000
39.12669 545.000
39.14697 512.000
39.16725 502.000
39.18753 518.000
39.20781 513.000
39.22809 528.000
39.24837 513.000
39.26865 537.000
39.28893 544.000
39.30921 559.000
39.32949 520.000
39.34977 514.000
39.37005 510.000
39.39033 527.000
39.41061 528.000
39.43089 555.000
39.45117 560.000
39.47145 560.000
39.49173 504.000
39.51201 526.000
39.53229 556.000
39.55257 535.000
39.57285 494.000
39.59313 482.000
39.61341 523.000
39.63369 511.000
39.65397 533.000
39.67425 553.000
39.69453 521.000
39.71481 568.000
39.73509 543.000
39.75537 540.000
39.77565 535.000
39.79593 529.000
39.81621 522.000
39.83649 522.000
39.85677 522.000
39.87705 554.000
39.89733 499.000
39.91761 526.000
39.93789 525.000
39.95817 509.000
39.97845 562.000
39.99873 572.000
