4.00155 2198.000
4.02183 2086.000
4.04211 1970.000
4.06239 2033.000
4.08267 1961.000
4.10295 1927.000
4.12323 1817.000
4.14351 1848.000
4.16379 1801.000
4.18407 1751.000
4.20435 1747.000
4.22463 1613.000
4.24491 1661.000
4.26519 1557.000
4.28547 1598.000
4.30575 1456.000
4.32603 1510.000
4.34631 1439.000
4.36659 1321.000
4.38687 1321.000
4.40715 1308.000
4.42743 1318.000
4.44771 1316.000
4.46799 1233.000
4.48827 1200.000
4.50855 1150.000
4.52883 1245.000
4.54911 1148.000
4.56939 1180.000
4.58967 1134.000
4.60995 1147.000
4.63023 1107.000
4.65051 1119.000
4.67079 1136.000
4.69107 1052.000
4.71135 1143.000
4.73163 1031.000
4.75191 1033.000
4.77219 968.000
4.79247 1016.000
4.81275 981.000
4.83303 937.000
4.85331 979.000
4.87359 978.000
4.89387 944.000
4.91415 915.000
4.93443 899.000
4.95471 881.000
4.97499 925.000
4.99527 863.000
5.01555 848.000
5.03583 843.000
5.05611 899.000
5.07639 853.000
5.09667 875.000
5.11695 851.000
5.13723 786.000
5.15751 879.000
5.17779 829.000
5.19807 799.000
5.21835 820.000
5.23863 705.000
5.25891 748.000
5.27919 711.000
5.29947 838.000
5.31975 772.000
5.34003 769.000
5.36031 723.000
5.38059 727.000
5.40087 710.000
5.42115 734.000
5.44143 678.000
5.46171 651.000
5.48199 694.000
5.50227 692.000
5.52255 694.000
5.54283 640.000
5.56311 672.000
5.58339 618.000
5.60367 616.000
5.62395 603.000
5.64423 606.000
5.66451 622.000
5.68479 588.000
5.70507 578.000
5.72536 577.000
5.74564 588.000
5.76592 604.000
5.78620 552.000
5.80648 556.000
5.82676 613.000
5.84704 562.000
5.86732 550.000
5.88760 515.000
5.90788 526.000
5.92816 521.000
5.94844 530.000
5.96872 523.000
5.98900 563.000
6.00928 526.000
6.02956 487.000
6.04984 555.000
6.07012 525.000
6.09040 500.000
6.11068 520.000
6.13096 528.000
6.15124 532.000
6.17152 519.000
6.19180 531.000
6.21208 551.000
6.23236 586.000
6.25264 595.000
6.27292 621.000
6.29320 701.000
6.31348 663.000
6.33376 757.000
6.35404 750.000
6.37432 869.000
6.39460 930.000
6.41488 942.000
6.43516 908.000
6.45544 798.000
6.47572 660.000
6.49600 589.000
6.51628 570.000
6.53656 504.000
6.55684 467.000
6.57712 458.000
6.59740 435.000
6.61768 458.000
6.63796 468.000
6.65824 414.000
6.67852 396.000
6.69880 457.000
6.71908 419.000
6.73936 404.000
6.75964 455.000
6.77992 422.000
6.80020 452.000
6.82048 399.000
6.84076 441.000
6.86104 390.000
6.88132 400.000
6.90160 377.000
6.92188 417.000
6.94216 374.000
6.96244 360.000
6.98272 369.000
7.00300 409.000
7.02328 431.000
7.04356 413.000
7.06384 402.000
7.08412 410.000
7.10440 393.000
7.12468 394.000
7.14496 358.000
7.16524 375.000
7.18552 393.000
7.20580 379.000
7.22608 353.000
7.24636 371.000
7.26664 373.000
7.28692 357.000
7.30720 350.000
7.32748 366.000
7.34776 359.000
7.36804 363.000
7.38832 368.000
7.40860 342.000
7.42888 368.000
7.44916 345.000
7.46944 363.000
7.48972 362.000
7.51000 351.000
7.53028 372.000
7.55056 366.000
7.57084 335.000
7.59112 405.000
7.61140 356.000
7.63168 328.000
7.65197 385.000
7.67225 381.000
7.69253 379.000
7.71281 370.000
7.73309 335.000
7.75337 350.000
7.77365 371.000
7.79393 400.000
7.81421 342.000
7.83449 341.000
7.85477 352.000
7.87505 379.000
7.89533 388.000
7.91561 322.000
7.93589 339.000
7.95617 363.000
7.97645 379.000
7.99673 348.000
8.01701 331.000
8.03729 373.000
8.05757 333.000
8.07785 342.000
8.09813 371.000
8.11841 376.000
8.13869 391.000
8.15897 400.000
8.17925 396.000
8.19953 359.000
8.21981 412.000
8.24009 434.000
8.26037 468.000
8.28065 434.000
8.30093 444.000
8.32121 479.000
8.34149 504.000
8.36177 632.000
8.38205 622.000
8.40233 700.000
8.42261 817.000
8.44289 936.000
8.46317 1082.000
8.48345 1389.000
8.50373 1720.000
8.52401 2270.000
8.54429 2897.000
8.56457 3796.000
8.58485 4581.000
8.60513 5314.000
8.62541 5653.000
8.64569 5442.000
8.66597 4527.000
8.68625 3513.000
8.70653 2640.000
8.72681 1926.000
8.74709 1360.000
8.76737 1127.000
8.78765 833.000
8.80793 733.000
8.82821 658.000
8.84849 612.000
8.86877 595.000
8.88905 546.000
8.90933 560.000
8.92961 509.000
8.94989 527.000
8.97017 457.000
8.99045 489.000
9.01073 469.000
9.03101 448.000
9.05129 448.000
9.07157 457.000
9.09185 468.000
9.11213 419.000
9.13241 487.000
9.15269 486.000
9.17297 478.000
9.19325 511.000
9.21353 496.000
9.23381 546.000
9.25409 603.000
9.27437 613.000
9.29465 707.000
9.31493 771.000
9.33521 948.000
9.35549 1089.000
9.37577 1460.000
9.39605 1812.000
9.41633 2315.000
9.43661 2824.000
9.45689 3257.000
9.47717 3328.000
9.49745 3178.000
9.51773 2743.000
9.53801 2166.000
9.55830 1704.000
9.57858 1246.000
9.59886 1083.000
9.61914 904.000
9.63942 796.000
9.65970 803.000
9.67998 889.000
9.70026 983.000
9.72054 1222.000
9.74082 1542.000
9.76110 1953.000
9.78138 2544.000
9.80166 3021.000
9.82194 3626.000
9.84222 3948.000
9.86250 3872.000
9.88278 3417.000
9.90306 2695.000
9.92334 1989.000
9.94362 1490.000
9.96390 1118.000
9.98418 842.000
10.00446 709.000
10.02474 682.000
10.04502 681.000
10.06530 555.000
10.08558 551.000
10.10586 507.000
10.12614 489.000
10.14642 462.000
10.16670 468.000
10.18698 490.000
10.20726 428.000
10.22754 404.000
10.24782 402.000
10.26810 384.000
10.28838 392.000
10.30866 395.000
10.32894 427.000
10.34922 447.000
10.36950 480.000
10.38978 509.000
10.41006 470.000
10.43034 555.000
10.45062 516.000
10.47090 480.000
10.49118 458.000
10.51146 446.000
10.53174 382.000
10.55202 394.000
10.57230 444.000
10.59258 397.000
10.61286 356.000
10.63314 432.000
10.65342 432.000
10.67370 412.000
10.69398 413.000
10.71426 472.000
10.73454 455.000
10.75482 535.000
10.77510 537.000
10.79538 663.000
10.81566 792.000
10.83594 1011.000
10.85622 1240.000
10.87650 1625.000
10.89678 2024.000
10.91706 2279.000
10.93734 2387.000
10.95762 2222.000
10.97790 1832.000
10.99818 1428.000
11.01846 1065.000
11.03874 818.000
11.05902 675.000
11.07930 551.000
11.09958 493.000
11.11986 469.000
11.14014 373.000
11.16042 434.000
11.18070 420.000
11.20098 392.000
11.22126 397.000
11.24154 365.000
11.26182 371.000
11.28210 363.000
11.30238 364.000
11.32266 341.000
11.34294 308.000
11.36322 358.000
11.38350 354.000
11.40378 310.000
11.42406 380.000
11.44434 369.000
11.46463 323.000
11.48491 368.000
11.50519 342.000
11.52547 320.000
11.54575 332.000
11.56603 332.000
11.58631 328.000
11.60659 326.000
11.62687 330.000
11.64715 361.000
11.66743 341.000
11.68771 300.000
11.70799 288.000
11.72827 320.000
11.74855 332.000
11.76883 340.000
11.78911 319.000
11.80939 303.000
11.82967 363.000
11.84995 349.000
11.87023 314.000
11.89051 308.000
11.91079 328.000
11.93107 312.000
11.95135 346.000
11.97163 347.000
11.99191 324.000
12.01219 293.000
12.03247 340.000
12.05275 318.000
12.07303 279.000
12.09331 316.000
12.11359 329.000
12.13387 305.000
12.15415 327.000
12.17443 319.000
12.19471 308.000
12.21499 340.000
12.23527 347.000
12.25555 368.000
12.27583 356.000
12.29611 362.000
12.31639 401.000
12.33667 417.000
12.35695 401.000
12.37723 430.000
12.39751 422.000
12.41779 361.000
12.43807 390.000
12.45835 345.000
12.47863 335.000
12.49891 319.000
12.51919 345.000
12.53947 323.000
12.55975 313.000
12.58003 312.000
12.60031 284.000
12.62059 345.000
12.64087 349.000
12.66115 299.000
12.68143 312.000
12.70171 325.000
12.72199 335.000
12.74227 360.000
12.76255 324.000
12.78283 311.000
12.80311 312.000
12.82339 349.000
12.84367 394.000
12.86395 358.000
12.88423 419.000
12.90451 423.000
12.92479 441.000
12.94507 488.000
12.96535 517.000
12.98563 519.000
13.00591 528.000
13.02619 475.000
13.04647 495.000
13.06675 457.000
13.08703 414.000
13.10731 463.000
13.12759 500.000
13.14787 542.000
13.16815 612.000
13.18843 782.000
13.20871 839.000
13.22899 893.000
13.24927 918.000
13.26955 904.000
13.28983 789.000
13.31011 709.000
13.33039 582.000
13.35067 539.000
13.37096 547.000
13.39124 549.000
13.41152 500.000
13.43180 521.000
13.45208 479.000
13.47236 486.000
13.49264 587.000
13.51292 584.000
13.53320 747.000
13.55348 847.000
13.57376 990.000
13.59404 1197.000
13.61432 1500.000
13.63460 1895.000
13.65488 2232.000
13.67516 2485.000
13.69544 2601.000
13.71572 2621.000
13.73600 2548.000
13.75628 2646.000
13.77656 2490.000
13.79684 2372.000
13.81712 2199.000
13.83740 1784.000
13.85768 1429.000
13.87796 1058.000
13.89824 896.000
13.91852 730.000
13.93880 589.000
13.95908 479.000
13.97936 465.000
13.99964 495.000
14.01992 460.000
14.04020 426.000
14.06048 391.000
14.08076 410.000
14.10104 401.000
14.12132 413.000
14.14160 343.000
14.16188 374.000
14.18216 376.000
14.20244 344.000
14.22272 366.000
14.24300 389.000
14.26328 355.000
14.28356 392.000
14.30384 357.000
14.32412 356.000
14.34440 399.000
14.36468 322.000
14.38496 348.000
14.40524 354.000
14.42552 400.000
14.44580 414.000
14.46608 361.000
14.48636 379.000
14.50664 369.000
14.52692 375.000
14.54720 391.000
14.56748 344.000
14.58776 389.000
14.60804 412.000
14.62832 374.000
14.64860 395.000
14.66888 401.000
14.68916 422.000
14.70944 422.000
14.72972 399.000
14.75000 517.000
14.77028 590.000
14.79056 638.000
14.81084 703.000
14.83112 777.000
14.85140 800.000
14.87168 885.000
14.89196 817.000
14.91224 756.000
14.93252 629.000
14.95280 588.000
14.97308 487.000
14.99336 449.000
15.01364 436.000
15.03392 441.000
15.05420 376.000
15.07448 420.000
15.09476 406.000
15.11504 416.000
15.13532 393.000
15.15560 405.000
15.17588 403.000
15.19616 396.000
15.21644 371.000
15.23672 402.000
15.25700 339.000
15.27729 352.000
15.29757 380.000
15.31785 405.000
15.33813 437.000
15.35841 416.000
15.37869 448.000
15.39897 421.000
15.41925 468.000
15.43953 488.000
15.45981 525.000
15.48009 546.000
15.50037 622.000
15.52065 714.000
15.54093 785.000
15.56121 898.000
15.58149 1001.000
15.60177 988.000
15.62205 1047.000
15.64233 1035.000
15.66261 925.000
15.68289 887.000
15.70317 879.000
15.72345 832.000
15.74373 759.000
15.76401 698.000
15.78429 647.000
15.80457 694.000
15.82485 722.000
15.84513 718.000
15.86541 796.000
15.88569 850.000
15.90597 1125.000
15.92625 1376.000
15.94653 1589.000
15.96681 2143.000
15.98709 2583.000
16.00737 3290.000
16.02765 3773.000
16.04793 4271.000
16.06821 4286.000
16.08849 3933.000
16.10877 3392.000
16.12905 2619.000
16.14933 2008.000
16.16961 1581.000
16.18989 1214.000
16.21017 1070.000
16.23045 907.000
16.25073 902.000
16.27101 827.000
16.29129 931.000
16.31157 914.000
16.33185 1167.000
16.35213 1236.000
16.37241 1335.000
16.39269 1429.000
16.41297 1366.000
16.43325 1482.000
16.45353 1371.000
16.47381 1365.000
16.49409 1323.000
16.51437 1382.000
16.53465 1552.000
16.55493 1803.000
16.57521 2058.000
16.59549 2642.000
16.61577 3068.000
16.63605 3425.000
16.65633 3631.000
16.67661 3471.000
16.69689 3044.000
16.71717 2399.000
16.73745 1977.000
16.75773 1482.000
16.77801 1142.000
16.79829 1023.000
16.81857 860.000
16.83885 762.000
16.85913 771.000
16.87941 691.000
16.89969 673.000
16.91997 682.000
16.94025 703.000
16.96053 674.000
16.98081 622.000
17.00109 686.000
17.02137 733.000
17.04165 717.000
17.06193 731.000
17.08221 814.000
17.10249 891.000
17.12277 1000.000
17.14305 1134.000
17.16333 1355.000
17.18362 1596.000
17.20390 1886.000
17.22418 2268.000
17.24446 3013.000
17.26474 3602.000
17.28502 4179.000
17.30530 4907.000
17.32558 4999.000
17.34586 4759.000
17.36614 4281.000
17.38642 3503.000
17.40670 2725.000
17.42698 2113.000
17.44726 1642.000
17.46754 1386.000
17.48782 1236.000
17.50810 1124.000
17.52838 1132.000
17.54866 1245.000
17.56894 1458.000
17.58922 1711.000
17.60950 2062.000
17.62978 2529.000
17.65006 3236.000
17.67034 4139.000
17.69062 5182.000
17.71090 6291.000
17.73118 7374.000
17.75146 7662.000
17.77174 7221.000
17.79202 6211.000
17.81230 4811.000
17.83258 3636.000
17.85286 2759.000
17.87314 2114.000
17.89342 1838.000
17.91370 1693.000
17.93398 1583.000
17.95426 1371.000
17.97454 1371.000
17.99482 1196.000
18.01510 1118.000
18.03538 1140.000
18.05566 1195.000
18.07594 1149.000
18.09622 1157.000
18.11650 1316.000
18.13678 1583.000
18.15706 1770.000
18.17734 2060.000
18.19762 2618.000
18.21790 3171.000
18.23818 3915.000
18.25846 4514.000
18.27874 5429.000
18.29902 6414.000
18.31930 6916.000
18.33958 7472.000
18.35986 8052.000
18.38014 7576.000
18.40042 6760.000
18.42070 5615.000
18.44098 4499.000
18.46126 3330.000
18.48154 2463.000
18.50182 1764.000
18.52210 1499.000
18.54238 1285.000
18.56266 1184.000
18.58294 1022.000
18.60322 994.000
18.62350 1058.000
18.64378 967.000
18.66406 1007.000
18.68434 1026.000
18.70462 1089.000
18.72490 1316.000
18.74518 1464.000
18.76546 1771.000
18.78574 1865.000
18.80602 2367.000
18.82630 2808.000
18.84658 3302.000
18.86686 3587.000
18.88714 3832.000
18.90742 3752.000
18.92770 3465.000
18.94798 2956.000
18.96826 2810.000
18.98854 2373.000
19.00882 2033.000
19.02910 1833.000
19.04938 1640.000
19.06966 1411.000
19.08995 1265.000
19.11023 1156.000
19.13051 1136.000
19.15079 1040.000
19.17107 1054.000
19.19135 1088.000
19.21163 1119.000
19.23191 1279.000
19.25219 1299.000
19.27247 1373.000
19.29275 1427.000
19.31303 1505.000
19.33331 1594.000
19.35359 1680.000
19.37387 1936.000
19.39415 2280.000
19.41443 2629.000
19.43471 2987.000
19.45499 3246.000
19.47527 3280.000
19.49555 3321.000
19.51583 3100.000
19.53611 2733.000
19.55639 2344.000
19.57667 2089.000
19.59695 1921.000
19.61723 1813.000
19.63751 2018.000
19.65779 2161.000
19.67807 2439.000
19.69835 2650.000
19.71863 3084.000
19.73891 3460.000
19.75919 3435.000
19.77947 3334.000
19.79975 3099.000
19.82003 2914.000
19.84031 2642.000
19.86059 2520.000
19.88087 2572.000
19.90115 2790.000
19.92143 3290.000
19.94171 3712.000
19.96199 4207.000
19.98227 5054.000
20.00255 5641.000
20.02283 5909.000
20.04311 5395.000
20.06339 4924.000
20.08367 4203.000
20.10395 3360.000
20.12423 2917.000
20.14451 2441.000
20.16479 2066.000
20.18507 1870.000
20.20535 1738.000
20.22563 1732.000
20.24591 1806.000
20.26619 1828.000
20.28647 2000.000
20.30675 2215.000
20.32703 2139.000
20.34731 2177.000
20.36759 2016.000
20.38787 1867.000
20.40815 1852.000
20.42843 1712.000
20.44871 1756.000
20.46899 1999.000
20.48927 2234.000
20.50955 2643.000
20.52983 3162.000
20.55011 3654.000
20.57039 4197.000
20.59067 4587.000
20.61095 4933.000
20.63123 4530.000
20.65151 4117.000
20.67179 3419.000
20.69207 2672.000
20.71235 2141.000
20.73263 1672.000
20.75291 1532.000
20.77319 1280.000
20.79347 1222.000
20.81375 1299.000
20.83403 1304.000
20.85431 1267.000
20.87459 1388.000
20.89487 1380.000
20.91515 1368.000
20.93543 1289.000
20.95571 1200.000
20.97599 1198.000
20.99628 1070.000
21.01656 1065.000
21.03684 1027.000
21.05712 985.000
21.07740 1005.000
21.09768 990.000
21.11796 1044.000
21.13824 1127.000
21.15852 1156.000
21.17880 1180.000
21.19908 1293.000
21.21936 1442.000
21.23964 1520.000
21.25992 1527.000
21.28020 1665.000
21.30048 1790.000
21.32076 1911.000
21.34104 2113.000
21.36132 2424.000
21.38160 2819.000
21.40188 3134.000
21.42216 3454.000
21.44244 3579.000
21.46272 3633.000
21.48300 3495.000
21.50328 3320.000
21.52356 3635.000
21.54384 3774.000
21.56412 4010.000
21.58440 4712.000
21.60468 5371.000
21.62496 6147.000
21.64524 6666.000
21.66552 6862.000
21.68580 6265.000
21.70608 5738.000
21.72636 4798.000
21.74664 3803.000
21.76692 2929.000
21.78720 2323.000
21.80748 1895.000
21.82776 1604.000
21.84804 1501.000
21.86832 1365.000
21.88860 1357.000
21.90888 1334.000
21.92916 1362.000
21.94944 1453.000
21.96972 1478.000
21.99000 1521.000
22.01028 1607.000
22.03056 1650.000
22.05084 1806.000
22.07112 2081.000
22.09140 2266.000
22.11168 2720.000
22.13196 2957.000
22.15224 3026.000
22.17252 3181.000
22.19280 3011.000
22.21308 2670.000
22.23336 2319.000
22.25364 1901.000
22.27392 1589.000
22.29420 1319.000
22.31448 1139.000
22.33476 1006.000
22.35504 934.000
22.37532 972.000
22.39560 902.000
22.41588 928.000
22.43616 987.000
22.45644 1007.000
22.47672 1109.000
22.49700 1114.000
22.51728 1164.000
22.53756 1204.000
22.55784 1254.000
22.57812 1282.000
22.59840 1285.000
22.61868 1343.000
22.63896 1467.000
22.65924 1662.000
22.67952 1748.000
22.69980 1970.000
22.72008 2105.000
22.74036 1953.000
22.76064 1902.000
22.78092 1663.000
22.80120 1466.000
22.82148 1307.000
22.84176 1159.000
22.86204 1011.000
22.88232 961.000
22.90261 873.000
22.92289 852.000
22.94317 853.000
22.96345 865.000
22.98373 1025.000
23.00401 1000.000
23.02429 1062.000
23.04457 1055.000
23.06485 1023.000
23.08513 1031.000
23.10541 971.000
23.12569 877.000
23.14597 890.000
23.16625 812.000
23.18653 815.000
23.20681 838.000
23.22709 831.000
23.24737 892.000
23.26765 1002.000
23.28793 1076.000
23.30821 1188.000
23.32849 1332.000
23.34877 1479.000
23.36905 1630.000
23.38933 1791.000
23.40961 1877.000
23.42989 1918.000
23.45017 1747.000
23.47045 1654.000
23.49073 1490.000
23.51101 1347.000
23.53129 1208.000
23.55157 1163.000
23.57185 1146.000
23.59213 1117.000
23.61241 1155.000
23.63269 1219.000
23.65297 1282.000
23.67325 1255.000
23.69353 1275.000
23.71381 1168.000
23.73409 1127.000
23.75437 1094.000
23.77465 1118.000
23.79493 1025.000
23.81521 1045.000
23.83549 1169.000
23.85577 1252.000
23.87605 1345.000
23.89633 1428.000
23.91661 1489.000
23.93689 1476.000
23.95717 1585.000
23.97745 1620.000
23.99773 1609.000
24.01801 1620.000
24.03829 1623.000
24.05857 1672.000
24.07885 1668.000
24.09913 1668.000
24.11941 1771.000
24.13969 1785.000
24.15997 1756.000
24.18025 1735.000
24.20053 1607.000
24.22081 1451.000
24.24109 1302.000
24.26137 1158.000
24.28165 1085.000
24.30193 1074.000
24.32221 1037.000
24.34249 1064.000
24.36277 1110.000
24.38305 1103.000
24.40333 1192.000
24.42361 1224.000
24.44389 1154.000
24.46417 1055.000
24.48445 1007.000
24.50473 930.000
24.52501 967.000
24.54529 919.000
24.56557 869.000
24.58585 987.000
24.60613 994.000
24.62641 1178.000
24.64669 1238.000
24.66697 1380.000
24.68725 1605.000
24.70753 1656.000
24.72781 1737.000
24.74809 1662.000
24.76837 1620.000
24.78865 1522.000
24.80893 1456.000
24.82922 1480.000
24.84950 1247.000
24.86978 1237.000
24.89006 1085.000
24.91034 1038.000
24.93062 991.000
24.95090 932.000
24.97118 873.000
24.99146 796.000
25.01174 753.000
25.03202 741.000
25.05230 818.000
25.07258 895.000
25.09286 931.000
25.11314 983.000
25.13342 1136.000
25.15370 1289.000
25.17398 1542.000
25.19426 1702.000
25.21454 1882.000
25.23482 2250.000
25.25510 2569.000
25.27538 2909.000
25.29566 3207.000
25.31594 3265.000
25.33622 3274.000
25.35650 3103.000
25.37678 2868.000
25.39706 2560.000
25.41734 2226.000
25.43762 1974.000
25.45790 1787.000
25.47818 1613.000
25.49846 1350.000
25.51874 1206.000
25.53902 1117.000
25.55930 1018.000
25.57958 932.000
25.59986 950.000
25.62014 883.000
25.64042 977.000
25.66070 1007.000
25.68098 1149.000
25.70126 1251.000
25.72154 1360.000
25.74182 1465.000
25.76210 1489.000
25.78238 1487.000
25.80266 1639.000
25.82294 1406.000
25.84322 1420.000
25.86350 1302.000
25.88378 1196.000
25.90406 1152.000
25.92434 1190.000
25.94462 1167.000
25.96490 1272.000
25.98518 1380.000
26.00546 1475.000
26.02574 1531.000
26.04602 1807.000
26.06630 1952.000
26.08658 2101.000
26.10686 2123.000
26.12714 2008.000
26.14742 1939.000
26.16770 1794.000
26.18798 1516.000
26.20826 1540.000
26.22854 1429.000
26.24882 1477.000
26.26910 1555.000
26.28938 1526.000
26.30966 1489.000
26.32994 1545.000
26.35022 1476.000
26.37050 1472.000
26.39078 1462.000
26.41106 1412.000
26.43134 1404.000
26.45162 1461.000
26.47190 1474.000
26.49218 1413.000
26.51246 1330.000
26.53274 1239.000
26.55302 1078.000
26.57330 987.000
26.59358 885.000
26.61386 788.000
26.63414 753.000
26.65442 791.000
26.67470 747.000
26.69498 750.000
26.71526 782.000
26.73555 721.000
26.75583 747.000
26.77611 833.000
26.79639 892.000
26.81667 993.000
26.83695 958.000
26.85723 978.000
26.87751 1201.000
26.89779 1140.000
26.91807 1113.000
26.93835 989.000
26.95863 1003.000
26.97891 894.000
26.99919 796.000
27.01947 770.000
27.03975 710.000
27.06003 616.000
27.08031 643.000
27.10059 561.000
27.12087 583.000
27.14115 621.000
27.16143 628.000
27.18171 642.000
27.20199 594.000
27.22227 658.000
27.24255 685.000
27.26283 730.000
27.28311 687.000
27.30339 775.000
27.32367 721.000
27.34395 738.000
27.36423 782.000
27.38451 773.000
27.40479 739.000
27.42507 780.000
27.44535 767.000
27.46563 796.000
27.48591 806.000
27.50619 889.000
27.52647 900.000
27.54675 811.000
27.56703 751.000
27.58731 685.000
27.60759 675.000
27.62787 632.000
27.64815 608.000
27.66843 594.000
27.68871 552.000
27.70899 551.000
27.72927 537.000
27.74955 533.000
27.76983 560.000
27.79011 570.000
27.81039 545.000
27.83067 553.000
27.85095 573.000
27.87123 555.000
27.89151 588.000
27.91179 601.000
27.93207 597.000
27.95235 625.000
27.97263 609.000
27.99291 591.000
28.01319 559.000
28.03347 586.000
28.05375 598.000
28.07403 598.000
28.09431 594.000
28.11459 574.000
28.13487 537.000
28.15515 531.000
28.17543 554.000
28.19571 549.000
28.21599 568.000
28.23627 521.000
28.25655 540.000
28.27683 614.000
28.29711 628.000
28.31739 608.000
28.33767 699.000
28.35795 762.000
28.37823 893.000
28.39851 914.000
28.41879 1054.000
28.43907 1146.000
28.45935 1301.000
28.47963 1507.000
28.49991 1611.000
28.52019 1851.000
28.54047 1992.000
28.56075 2031.000
28.58103 2040.000
28.60131 1909.000
28.62159 1916.000
28.64188 1799.000
28.66216 1647.000
28.68244 1539.000
28.70272 1547.000
28.72300 1361.000
28.74328 1479.000
28.76356 1313.000
28.78384 1185.000
28.80412 1077.000
28.82440 1009.000
28.84468 854.000
28.86496 804.000
28.88524 697.000
28.90552 616.000
28.92580 645.000
28.94608 570.000
28.96636 570.000
28.98664 586.000
29.00692 560.000
29.02720 570.000
29.04748 569.000
29.06776 561.000
29.08804 560.000
29.10832 645.000
29.12860 612.000
29.14888 614.000
29.16916 691.000
29.18944 651.000
29.20972 648.000
29.23000 626.000
29.25028 666.000
29.27056 597.000
29.29084 627.000
29.31112 577.000
29.33140 604.000
29.35168 523.000
29.37196 498.000
29.39224 477.000
29.41252 501.000
29.43280 502.000
29.45308 514.000
29.47336 522.000
29.49364 520.000
29.51392 601.000
29.53420 595.000
29.55448 645.000
29.57476 721.000
29.59504 758.000
29.61532 758.000
29.63560 812.000
29.65588 940.000
29.67616 1057.000
29.69644 1163.000
29.71672 1257.000
29.73700 1352.000
29.75728 1448.000
29.77756 1471.000
29.79784 1564.000
29.81812 1566.000
29.83840 1503.000
29.85868 1421.000
29.87896 1375.000
29.89924 1289.000
29.91952 1252.000
29.93980 1236.000
29.96008 1311.000
29.98036 1275.000
30.00064 1321.000
30.02092 1301.000
30.04120 1322.000
30.06148 1390.000
30.08176 1315.000
30.10204 1342.000
30.12232 1230.000
30.14260 1219.000
30.16288 1162.000
30.18316 1107.000
30.20344 1066.000
30.22372 1032.000
30.24400 1009.000
30.26428 963.000
30.28456 947.000
30.30484 942.000
30.32512 869.000
30.34540 799.000
30.36568 809.000
30.38596 782.000
30.40624 736.000
30.42652 655.000
30.44680 650.000
30.46708 596.000
30.48736 565.000
30.50764 585.000
30.52792 513.000
30.54821 497.000
30.56849 541.000
30.58877 523.000
30.60905 531.000
30.62933 519.000
30.64961 592.000
30.66989 577.000
30.69017 627.000
30.71045 654.000
30.73073 661.000
30.75101 673.000
30.77129 702.000
30.79157 726.000
30.81185 691.000
30.83213 673.000
30.85241 761.000
30.87269 755.000
30.89297 792.000
30.91325 743.000
30.93353 779.000
30.95381 765.000
30.97409 683.000
30.99437 706.000
31.01465 736.000
31.03493 633.000
31.05521 658.000
31.07549 642.000
31.09577 627.000
31.11605 676.000
31.13633 715.000
31.15661 704.000
31.17689 751.000
31.19717 761.000
31.21745 821.000
31.23773 828.000
31.25801 865.000
31.27829 929.000
31.29857 1003.000
31.31885 1032.000
31.33913 1003.000
31.35941 1063.000
31.37969 993.000
31.39997 989.000
31.42025 960.000
31.44053 1030.000
31.46081 997.000
31.48109 1068.000
31.50137 1081.000
31.52165 1256.000
31.54193 1343.000
31.56221 1374.000
31.58249 1507.000
31.60277 1537.000
31.62305 1565.000
31.64333 1643.000
31.66361 1589.000
31.68389 1407.000
31.70417 1403.000
31.72445 1334.000
31.74473 1223.000
31.76501 1169.000
31.78529 1111.000
31.80557 968.000
31.82585 921.000
31.84613 910.000
31.86641 914.000
31.88669 902.000
31.90697 897.000
31.92725 963.000
31.94753 924.000
31.96781 964.000
31.98809 976.000
32.00837 1019.000
32.02865 1014.000
32.04893 1013.000
32.06921 987.000
32.08949 918.000
32.10977 857.000
32.13005 807.000
32.15033 746.000
32.17061 769.000
32.19089 635.000
32.21117 645.000
32.23145 597.000
32.25173 638.000
32.27201 672.000
32.29229 711.000
32.31257 648.000
32.33285 691.000
32.35313 749.000
32.37341 723.000
32.39369 703.000
32.41397 692.000
32.43425 657.000
32.45454 635.000
32.47482 595.000
32.49510 600.000
32.51538 575.000
32.53566 596.000
32.55594 581.000
32.57622 594.000
32.59650 542.000
32.61678 574.000
32.63706 592.000
32.65734 582.000
32.67762 559.000
32.69790 555.000
32.71818 515.000
32.73846 514.000
32.75874 533.000
32.77902 544.000
32.79930 506.000
32.81958 490.000
32.83986 522.000
32.86014 505.000
32.88042 507.000
32.90070 490.000
32.92098 530.000
32.94126 496.000
32.96154 524.000
32.98182 613.000
33.00210 659.000
33.02238 613.000
33.04266 705.000
33.06294 746.000
33.08322 755.000
33.10350 855.000
33.12378 861.000
33.14406 823.000
33.16434 752.000
33.18462 798.000
33.20490 760.000
33.22518 718.000
33.24546 712.000
33.26574 635.000
33.28602 608.000
33.30630 602.000
33.32658 556.000
33.34686 560.000
33.36714 543.000
33.38742 589.000
33.40770 583.000
33.42798 629.000
33.44826 635.000
33.46854 659.000
33.48882 710.000
33.50910 686.000
33.52938 683.000
33.54966 733.000
33.56994 766.000
33.59022 796.000
33.61050 758.000
33.63078 869.000
33.65106 787.000
33.67134 811.000
33.69162 811.000
33.71190 727.000
33.73218 697.000
33.75246 680.000
33.77274 668.000
33.79302 633.000
33.81330 624.000
33.83358 518.000
33.85386 562.000
33.87414 579.000
33.89442 531.000
33.91470 522.000
33.93498 505.000
33.95526 498.000
33.97554 479.000
33.99582 485.000
34.01610 485.000
34.03638 486.000
34.05666 475.000
34.07694 543.000
34.09722 476.000
34.11750 543.000
34.13778 515.000
34.15806 550.000
34.17834 529.000
34.19862 520.000
34.21890 490.000
34.23918 493.000
34.25946 503.000
34.27974 462.000
34.30002 427.000
34.32030 414.000
34.34058 451.000
34.36087 474.000
34.38115 408.000
34.40143 444.000
34.42171 453.000
34.44199 448.000
34.46227 436.000
34.48255 466.000
34.50283 440.000
34.52311 467.000
34.54339 478.000
34.56367 509.000
34.58395 518.000
34.60423 511.000
34.62451 550.000
34.64479 557.000
34.66507 560.000
34.68535 550.000
34.70563 655.000
34.72591 585.000
34.74619 620.000
34.76647 603.000
34.78675 642.000
34.80703 660.000
34.82731 686.000
34.84759 729.000
34.86787 751.000
34.88815 815.000
34.90843 804.000
34.92871 812.000
34.94899 927.000
34.96927 938.000
34.98955 948.000
35.00983 998.000
35.03011 1027.000
35.05039 983.000
35.07067 994.000
35.09095 908.000
35.11123 879.000
35.13151 878.000
35.15179 895.000
35.17207 863.000
35.19235 925.000
35.21263 907.000
35.23291 889.000
35.25319 936.000
35.27347 947.000
35.29375 920.000
35.31403 889.000
35.33431 850.000
35.35459 796.000
35.37487 736.000
35.39515 653.000
35.41543 655.000
35.43571 624.000
35.45599 586.000
35.47627 552.000
35.49655 552.000
35.51683 541.000
35.53711 506.000
35.55739 543.000
35.57767 517.000
35.59795 495.000
35.61823 510.000
35.63851 509.000
35.65879 470.000
35.67907 486.000
35.69935 530.000
35.71963 470.000
35.73991 489.000
35.76019 528.000
35.78047 512.000
35.80075 535.000
35.82103 554.000
35.84131 607.000
35.86159 536.000
35.88187 595.000
35.90215 659.000
35.92243 607.000
35.94271 637.000
35.96299 696.000
35.98327 759.000
36.00355 742.000
36.02383 749.000
36.04411 770.000
36.06439 760.000
36.08467 882.000
36.10495 935.000
36.12523 962.000
36.14551 952.000
36.16579 1041.000
36.18607 1032.000
36.20635 1085.000
36.22663 1089.000
36.24691 1068.000
36.26720 1001.000
36.28748 1053.000
36.30776 970.000
36.32804 934.000
36.34832 907.000
36.36860 904.000
36.38888 795.000
36.40916 770.000
36.42944 720.000
36.44972 650.000
36.47000 710.000
36.49028 654.000
36.51056 594.000
36.53084 551.000
36.55112 586.000
36.57140 589.000
36.59168 579.000
36.61196 548.000
36.63224 533.000
36.65252 569.000
36.67280 604.000
36.69308 551.000
36.71336 590.000
36.73364 607.000
36.75392 577.000
36.77420 589.000
36.79448 540.000
36.81476 491.000
36.83504 527.000
36.85532 546.000
36.87560 458.000
36.89588 471.000
36.91616 449.000
36.93644 481.000
36.95672 490.000
36.97700 483.000
36.99728 500.000
37.01756 467.000
37.03784 496.000
37.05812 511.000
37.07840 531.000
37.09868 570.000
37.11896 547.000
37.13924 631.000
37.15952 635.000
37.17980 673.000
37.20008 687.000
37.22036 687.000
37.24064 687.000
37.26092 701.000
37.28120 659.000
37.30148 701.000
37.32176 674.000
37.34204 648.000
37.36232 616.000
37.38260 608.000
37.40288 562.000
37.42316 557.000
37.44344 540.000
37.46372 522.000
37.48400 502.000
37.50428 508.000
37.52456 464.000
37.54484 520.000
37.56512 497.000
37.58540 436.000
37.60568 475.000
37.62596 439.000
37.64624 473.000
37.66652 450.000
37.68680 484.000
37.70708 458.000
37.72736 465.000
37.74764 526.000
37.76792 535.000
37.78820 496.000
37.80848 552.000
37.82876 540.000
37.84904 615.000
37.86932 596.000
37.88960 591.000
37.90988 638.000
37.93016 612.000
37.95044 636.000
37.97072 663.000
37.99100 642.000
38.01128 625.000
38.03156 634.000
38.05184 601.000
38.07212 545.000
38.09240 563.000
38.11268 579.000
38.13296 584.000
38.15324 642.000
38.17353 596.000
38.19381 652.000
38.21409 619.000
38.23437 660.000
38.25465 688.000
38.27493 716.000
38.29521 695.000
38.31549 727.000
38.33577 807.000
38.35605 722.000
38.37633 727.000
38.39661 691.000
38.41689 734.000
38.43717 717.000
38.45745 724.000
38.47773 741.000
38.49801 694.000
38.51829 653.000
38.53857 663.000
38.55885 636.000
38.57913 603.000
38.59941 594.000
38.61969 580.000
38.63997 506.000
38.66025 533.000
38.68053 572.000
38.70081 590.000
38.72109 507.000
38.74137 580.000
38.76165 600.000
38.78193 620.000
38.80221 630.000
38.82249 644.000
38.84277 696.000
38.86305 719.000
38.88333 726.000
38.90361 711.000
38.92389 760.000
38.94417 759.000
38.96445 809.000
38.98473 824.000
39.00501 891.000
39.02529 854.000
39.04557 895.000
39.06585 847.000
39.08613 857.000
39.10641 777.000
39.12669 756.000
39.14697 698.000
39.16725 696.000
39.18753 653.000
39.20781 609.000
39.22809 581.000
39.24837 587.000
39.26865 549.000
39.28893 524.000
39.30921 568.000
39.32949 562.000
39.34977 550.000
39.37005 571.000
39.39033 546.000
39.41061 587.000
39.43089 559.000
39.45117 581.000
39.47145 587.000
39.49173 610.000
39.51201 664.000
39.53229 647.000
39.55257 636.000
39.57285 659.000
39.59313 613.000
39.61341 661.000
39.63369 644.000
39.65397 644.000
39.67425 634.000
39.69453 549.000
39.71481 585.000
39.73509 532.000
39.75537 594.000
39.77565 549.000
39.79593 513.000
39.81621 566.000
39.83649 544.000
39.85677 617.000
39.87705 572.000
39.89733 567.000
39.91761 597.000
39.93789 600.000
39.95817 602.000
39.97845 620.000
39.99873 606.000
