4.00155 2284.000
4.02183 2186.000
4.04211 2213.000
4.06239 2114.000
4.08267 2157.000
4.10295 1955.000
4.12323 1925.000
4.14351 1899.000
4.16379 1794.000
4.18407 1925.000
4.20435 1753.000
4.22463 1788.000
4.24491 1699.000
4.26519 1628.000
4.28547 1652.000
4.30575 1595.000
4.32603 1648.000
4.34631 1567.000
4.36659 1441.000
4.38687 1402.000
4.40715 1439.000
4.42743 1404.000
4.44771 1391.000
4.46799 1338.000
4.48827 1294.000
4.50855 1257.000
4.52883 1285.000
4.54911 1227.000
4.56939 1240.000
4.58967 1217.000
4.60995 1231.000
4.63023 1138.000
4.65051 1159.000
4.67079 1128.000
4.69107 1088.000
4.71135 1136.000
4.73163 1083.000
4.75191 1080.000
4.77219 1072.000
4.79247 1054.000
4.81275 1093.000
4.83303 1010.000
4.85331 1066.000
4.87359 1009.000
4.89387 980.000
4.91415 951.000
4.93443 1009.000
4.95471 990.000
4.97499 942.000
4.99527 1002.000
5.01555 946.000
5.03583 925.000
5.05611 988.000
5.07639 946.000
5.09667 961.000
5.11695 949.000
5.13723 878.000
5.15751 863.000
5.17779 856.000
5.19807 868.000
5.21835 769.000
5.23863 832.000
5.25891 786.000
5.27919 795.000
5.29947 758.000
5.31975 796.000
5.34003 766.000
5.36031 781.000
5.38059 768.000
5.40087 775.000
5.42115 732.000
5.44143 755.000
5.46171 730.000
5.48199 792.000
5.50227 779.000
5.52255 712.000
5.54283 751.000
5.56311 730.000
5.58339 712.000
5.60367 728.000
5.62395 670.000
5.64423 649.000
5.66451 666.000
5.68479 688.000
5.70507 620.000
5.72536 704.000
5.74564 652.000
5.76592 608.000
5.78620 608.000
5.80648 620.000
5.82676 609.000
5.84704 640.000
5.86732 591.000
5.88760 573.000
5.90788 614.000
5.92816 578.000
5.94844 624.000
5.96872 583.000
5.98900 585.000
6.00928 560.000
6.02956 540.000
6.04984 565.000
6.07012 551.000
6.09040 563.000
6.11068 555.000
6.13096 649.000
6.15124 600.000
6.17152 590.000
6.19180 585.000
6.21208 625.000
6.23236 626.000
6.25264 652.000
6.27292 690.000
6.29320 704.000
6.31348 766.000
6.33376 802.000
6.35404 791.000
6.37432 875.000
6.39460 970.000
6.41488 998.000
6.43516 912.000
6.45544 754.000
6.47572 683.000
6.49600 656.000
6.51628 581.000
6.53656 538.000
6.55684 550.000
6.57712 540.000
6.59740 573.000
6.61768 614.000
6.63796 630.000
6.65824 602.000
6.67852 603.000
6.69880 658.000
6.71908 692.000
6.73936 764.000
6.75964 827.000
6.77992 871.000
6.80020 834.000
6.82048 761.000
6.84076 784.000
6.86104 719.000
6.88132 605.000
6.90160 544.000
6.92188 532.000
6.94216 463.000
6.96244 467.000
6.98272 450.000
7.00300 480.000
7.02328 441.000
7.04356 467.000
7.06384 472.000
7.08412 441.000
7.10440 451.000
7.12468 440.000
7.14496 378.000
7.16524 418.000
7.18552 432.000
7.20580 450.000
7.22608 431.000
7.24636 454.000
7.26664 411.000
7.28692 416.000
7.30720 406.000
7.32748 451.000
7.34776 441.000
7.36804 436.000
7.38832 383.000
7.40860 430.000
7.42888 397.000
7.44916 419.000
7.46944 408.000
7.48972 427.000
7.51000 416.000
7.53028 435.000
7.55056 443.000
7.57084 412.000
7.59112 415.000
7.61140 417.000
7.63168 413.000
7.65197 440.000
7.67225 423.000
7.69253 438.000
7.71281 412.000
7.73309 443.000
7.75337 440.000
7.77365 456.000
7.79393 440.000
7.81421 399.000
7.83449 381.000
7.85477 411.000
7.87505 394.000
7.89533 459.000
7.91561 412.000
7.93589 421.000
7.95617 426.000
7.97645 406.000
7.99673 416.000
8.01701 420.000
8.03729 450.000
8.05757 440.000
8.07785 451.000
8.09813 449.000
8.11841 473.000
8.13869 482.000
8.15897 461.000
8.17925 486.000
8.19953 496.000
8.21981 499.000
8.24009 625.000
8.26037 663.000
8.28065 731.000
8.30093 760.000
8.32121 867.000
8.34149 1043.000
8.36177 1044.000
8.38205 1125.000
8.40233 1136.000
8.42261 1181.000
8.44289 1142.000
8.46317 1461.000
8.48345 1677.000
8.50373 2099.000
8.52401 2603.000
8.54429 3339.000
8.56457 4017.000
8.58485 4770.000
8.60513 5364.000
8.62541 5575.000
8.64569 5030.000
8.66597 4059.000
8.68625 3029.000
8.70653 2189.000
8.72681 1611.000
8.74709 1183.000
8.76737 917.000
8.78765 842.000
8.80793 720.000
8.82821 667.000
8.84849 647.000
8.86877 606.000
8.88905 573.000
8.90933 563.000
8.92961 586.000
8.94989 553.000
8.97017 543.000
8.99045 495.000
9.01073 514.000
9.03101 505.000
9.05129 482.000
9.07157 521.000
9.09185 476.000
9.11213 514.000
9.13241 521.000
9.15269 558.000
9.17297 554.000
9.19325 608.000
9.21353 576.000
9.23381 600.000
9.25409 695.000
9.27437 663.000
9.29465 789.000
9.31493 940.000
9.33521 1026.000
9.35549 1304.000
9.37577 1518.000
9.39605 1883.000
9.41633 2282.000
9.43661 2720.000
9.45689 2916.000
9.47717 3050.000
9.49745 2717.000
9.51773 2263.000
9.53801 1769.000
9.55830 1276.000
9.57858 1048.000
9.59886 854.000
9.61914 854.000
9.63942 837.000
9.65970 905.000
9.67998 996.000
9.70026 1190.000
9.72054 1351.000
9.74082 1739.000
9.76110 2242.000
9.78138 2725.000
9.80166 3217.000
9.82194 3771.000
9.84222 4007.000
9.86250 3761.000
9.88278 3120.000
9.90306 2361.000
9.92334 1631.000
9.94362 1229.000
9.96390 974.000
9.98418 821.000
10.00446 725.000
10.02474 670.000
10.04502 637.000
10.06530 599.000
10.08558 576.000
10.10586 560.000
10.12614 528.000
10.14642 506.000
10.16670 498.000
10.18698 452.000
10.20726 449.000
10.22754 441.000
10.24782 443.000
10.26810 457.000
10.28838 441.000
10.30866 487.000
10.32894 535.000
10.34922 505.000
10.36950 518.000
10.38978 516.000
10.41006 528.000
10.43034 489.000
10.45062 530.000
10.47090 520.000
10.49118 523.000
10.51146 470.000
10.53174 505.000
10.55202 516.000
10.57230 505.000
10.59258 474.000
10.61286 492.000
10.63314 478.000
10.65342 500.000
10.67370 499.000
10.69398 468.000
10.71426 535.000
10.73454 545.000
10.75482 632.000
10.77510 687.000
10.79538 842.000
10.81566 1008.000
10.83594 1194.000
10.85622 1489.000
10.87650 1783.000
10.89678 2114.000
10.91706 2315.000
10.93734 2370.000
10.95762 2199.000
10.97790 1716.000
10.99818 1282.000
11.01846 856.000
11.03874 696.000
11.05902 599.000
11.07930 521.000
11.09958 498.000
11.11986 455.000
11.14014 447.000
11.16042 434.000
11.18070 416.000
11.20098 420.000
11.22126 425.000
11.24154 427.000
11.26182 384.000
11.28210 383.000
11.30238 387.000
11.32266 371.000
11.34294 385.000
11.36322 386.000
11.38350 381.000
11.40378 377.000
11.42406 362.000
11.44434 389.000
11.46463 396.000
11.48491 349.000
11.50519 396.000
11.52547 348.000
11.54575 361.000
11.56603 377.000
11.58631 325.000
11.60659 351.000
11.62687 359.000
11.64715 355.000
11.66743 361.000
11.68771 372.000
11.70799 386.000
11.72827 343.000
11.74855 365.000
11.76883 377.000
11.78911 403.000
11.80939 368.000
11.82967 321.000
11.84995 348.000
11.87023 363.000
11.89051 346.000
11.91079 347.000
11.93107 364.000
11.95135 355.000
11.97163 370.000
11.99191 334.000
12.01219 349.000
12.03247 398.000
12.05275 341.000
12.07303 318.000
12.09331 360.000
12.11359 398.000
12.13387 378.000
12.15415 338.000
12.17443 358.000
12.19471 368.000
12.21499 386.000
12.23527 369.000
12.25555 410.000
12.27583 391.000
12.29611 431.000
12.31639 458.000
12.33667 438.000
12.35695 437.000
12.37723 396.000
12.39751 365.000
12.41779 449.000
12.43807 406.000
12.45835 369.000
12.47863 350.000
12.49891 362.000
12.51919 343.000
12.53947 354.000
12.55975 353.000
12.58003 295.000
12.60031 332.000
12.62059 352.000
12.64087 369.000
12.66115 358.000
12.68143 359.000
12.70171 384.000
12.72199 355.000
12.74227 376.000
12.76255 394.000
12.78283 401.000
12.80311 419.000
12.82339 399.000
12.84367 366.000
12.86395 417.000
12.88423 481.000
12.90451 489.000
12.92479 519.000
12.94507 572.000
12.96535 568.000
12.98563 551.000
13.00591 563.000
13.02619 524.000
13.04647 473.000
13.06675 491.000
13.08703 481.000
13.10731 514.000
13.12759 555.000
13.14787 625.000
13.16815 675.000
13.18843 808.000
13.20871 772.000
13.22899 931.000
13.24927 947.000
13.26955 850.000
13.28983 805.000
13.31011 708.000
13.33039 637.000
13.35067 590.000
13.37096 572.000
13.39124 601.000
13.41152 584.000
13.43180 580.000
13.45208 599.000
13.47236 641.000
13.49264 717.000
13.51292 792.000
13.53320 898.000
13.55348 1015.000
13.57376 1171.000
13.59404 1400.000
13.61432 1648.000
13.63460 1962.000
13.65488 2284.000
13.67516 2350.000
13.69544 2473.000
13.71572 2273.000
13.73600 2291.000
13.75628 2223.000
13.77656 2250.000
13.79684 2082.000
13.81712 1863.000
13.83740 1422.000
13.85768 1130.000
13.87796 861.000
13.89824 705.000
13.91852 644.000
13.93880 585.000
13.95908 496.000
13.97936 523.000
13.99964 507.000
14.01992 480.000
14.04020 432.000
14.06048 452.000
14.08076 426.000
14.10104 434.000
14.12132 371.000
14.14160 428.000
14.16188 371.000
14.18216 403.000
14.20244 439.000
14.22272 404.000
14.24300 377.000
14.26328 365.000
14.28356 376.000
14.30384 378.000
14.32412 412.000
14.34440 380.000
14.36468 375.000
14.38496 420.000
14.40524 419.000
14.42552 398.000
14.44580 408.000
14.46608 430.000
14.48636 394.000
14.50664 432.000
14.52692 442.000
14.54720 431.000
14.56748 452.000
14.58776 521.000
14.60804 484.000
14.62832 539.000
14.64860 544.000
14.66888 565.000
14.68916 558.000
14.70944 557.000
14.72972 535.000
14.75000 575.000
14.77028 629.000
14.79056 687.000
14.81084 761.000
14.83112 796.000
14.85140 863.000
14.87168 851.000
14.89196 851.000
14.91224 769.000
14.93252 659.000
14.95280 561.000
14.97308 551.000
14.99336 470.000
15.01364 474.000
15.03392 439.000
15.05420 444.000
15.07448 398.000
15.09476 448.000
15.11504 421.000
15.13532 423.000
15.15560 403.000
15.17588 431.000
15.19616 391.000
15.21644 407.000
15.23672 461.000
15.25700 430.000
15.27729 401.000
15.29757 437.000
15.31785 456.000
15.33813 411.000
15.35841 462.000
15.37869 479.000
15.39897 438.000
15.41925 502.000
15.43953 541.000
15.45981 551.000
15.48009 661.000
15.50037 693.000
15.52065 753.000
15.54093 834.000
15.56121 919.000
15.58149 979.000
15.60177 971.000
15.62205 1053.000
15.64233 961.000
15.66261 836.000
15.68289 820.000
15.70317 805.000
15.72345 758.000
15.74373 739.000
15.76401 696.000
15.78429 742.000
15.80457 714.000
15.82485 763.000
15.84513 827.000
15.86541 906.000
15.88569 1096.000
15.90597 1186.000
15.92625 1463.000
15.94653 1680.000
15.96681 2043.000
15.98709 2444.000
16.00737 2859.000
16.02765 3336.000
16.04793 3602.000
16.06821 3594.000
16.08849 3239.000
16.10877 2630.000
16.12905 2055.000
16.14933 1556.000
16.16961 1230.000
16.18989 1057.000
16.21017 976.000
16.23045 934.000
16.25073 986.000
16.27101 1064.000
16.29129 1022.000
16.31157 1128.000
16.33185 1240.000
16.35213 1414.000
16.37241 1480.000
16.39269 1643.000
16.41297 1592.000
16.43325 1605.000
16.45353 1478.000
16.47381 1379.000
16.49409 1401.000
16.51437 1473.000
16.53465 1658.000
16.55493 1887.000
16.57521 2100.000
16.59549 2484.000
16.61577 2686.000
16.63605 3097.000
16.65633 3095.000
16.67661 2750.000
16.69689 2424.000
16.71717 1985.000
16.73745 1567.000
16.75773 1289.000
16.77801 1171.000
16.79829 968.000
16.81857 995.000
16.83885 932.000
16.85913 845.000
16.87941 821.000
16.89969 803.000
16.91997 776.000
16.94025 757.000
16.96053 840.000
16.98081 865.000
17.00109 884.000
17.02137 972.000
17.04165 1086.000
17.06193 1139.000
17.08221 1234.000
17.10249 1293.000
17.12277 1395.000
17.14305 1538.000
17.16333 1654.000
17.18362 1856.000
17.20390 2151.000
17.22418 2453.000
17.24446 2906.000
17.26474 3403.000
17.28502 3747.000
17.30530 4130.000
17.32558 4365.000
17.34586 4007.000
17.36614 3454.000
17.38642 2781.000
17.40670 2174.000
17.42698 1663.000
17.44726 1445.000
17.46754 1360.000
17.48782 1322.000
17.50810 1425.000
17.52838 1384.000
17.54866 1600.000
17.56894 1913.000
17.58922 2098.000
17.60950 2366.000
17.62978 2966.000
17.65006 3464.000
17.67034 4230.000
17.69062 4865.000
17.71090 5953.000
17.73118 6807.000
17.75146 6612.000
17.77174 6318.000
17.79202 5193.000
17.81230 4132.000
17.83258 3129.000
17.85286 2355.000
17.87314 1936.000
17.89342 1671.000
17.91370 1646.000
17.93398 1663.000
17.95426 1517.000
17.97454 1492.000
17.99482 1446.000
18.01510 1513.000
18.03538 1513.000
18.05566 1541.000
18.07594 1739.000
18.09622 1787.000
18.11650 1990.000
18.13678 2126.000
18.15706 2261.000
18.17734 2472.000
18.19762 2952.000
18.21790 3546.000
18.23818 3886.000
18.25846 4529.000
18.27874 5192.000
18.29902 5649.000
18.31930 6186.000
18.33958 6438.000
18.35986 6654.000
18.38014 6348.000
18.40042 5523.000
18.42070 4528.000
18.44098 3523.000
18.46126 2685.000
18.48154 2014.000
18.50182 1602.000
18.52210 1416.000
18.54238 1272.000
18.56266 1174.000
18.58294 1194.000
18.60322 1136.000
18.62350 1311.000
18.64378 1281.000
18.66406 1404.000
18.68434 1415.000
18.70462 1433.000
18.72490 1566.000
18.74518 1684.000
18.76546 1796.000
18.78574 2111.000
18.80602 2380.000
18.82630 2606.000
18.84658 2907.000
18.86686 3199.000
18.88714 3364.000
18.90742 3123.000
18.92770 2908.000
18.94798 2638.000
18.96826 2287.000
18.98854 2096.000
19.00882 1907.000
19.02910 1597.000
19.04938 1480.000
19.06966 1297.000
19.08995 1227.000
19.11023 1057.000
19.13051 1097.000
19.15079 1028.000
19.17107 1099.000
19.19135 1105.000
19.21163 1228.000
19.23191 1216.000
19.25219 1281.000
19.27247 1350.000
19.29275 1528.000
19.31303 1611.000
19.33331 1658.000
19.35359 1799.000
19.37387 1858.000
19.39415 2180.000
19.41443 2476.000
19.43471 2734.000
19.45499 2940.000
19.47527 3068.000
19.49555 2918.000
19.51583 2766.000
19.53611 2515.000
19.55639 2225.000
19.57667 2082.000
19.59695 1932.000
19.61723 1889.000
19.63751 1974.000
19.65779 2192.000
19.67807 2327.000
19.69835 2580.000
19.71863 2924.000
19.73891 3183.000
19.75919 3179.000
19.77947 3289.000
19.79975 2968.000
19.82003 2816.000
19.84031 2670.000
19.86059 2606.000
19.88087 2677.000
19.90115 2929.000
19.92143 3286.000
19.94171 3566.000
19.96199 4002.000
19.98227 4562.000
20.00255 4750.000
20.02283 4966.000
20.04311 4561.000
20.06339 4035.000
20.08367 3551.000
20.10395 2923.000
20.12423 2477.000
20.14451 2219.000
20.16479 2044.000
20.18507 1882.000
20.20535 1877.000
20.22563 1911.000
20.24591 1869.000
20.26619 2005.000
20.28647 2031.000
20.30675 2180.000
20.32703 2263.000
20.34731 2240.000
20.36759 2145.000
20.38787 2088.000
20.40815 1938.000
20.42843 1903.000
20.44871 2010.000
20.46899 2140.000
20.48927 2346.000
20.50955 2594.000
20.52983 2980.000
20.55011 3253.000
20.57039 3689.000
20.59067 4048.000
20.61095 4077.000
20.63123 3836.000
20.65151 3408.000
20.67179 2809.000
20.69207 2268.000
20.71235 1916.000
20.73263 1461.000
20.75291 1363.000
20.77319 1265.000
20.79347 1162.000
20.81375 1245.000
20.83403 1139.000
20.85431 1154.000
20.87459 1313.000
20.89487 1293.000
20.91515 1249.000
20.93543 1233.000
20.95571 1165.000
20.97599 1109.000
20.99628 1073.000
21.01656 1037.000
21.03684 988.000
21.05712 1081.000
21.07740 1024.000
21.09768 1108.000
21.11796 1116.000
21.13824 1221.000
21.15852 1173.000
21.17880 1285.000
21.19908 1444.000
21.21936 1582.000
21.23964 1668.000
21.25992 1728.000
21.28020 1841.000
21.30048 1978.000
21.32076 2142.000
21.34104 2353.000
21.36132 2641.000
21.38160 2937.000
21.40188 3168.000
21.42216 3426.000
21.44244 3642.000
21.46272 3618.000
21.48300 3786.000
21.50328 3786.000
21.52356 3753.000
21.54384 4061.000
21.56412 4016.000
21.58440 4468.000
21.60468 5051.000
21.62496 5426.000
21.64524 5770.000
21.66552 5849.000
21.68580 5386.000
21.70608 4721.000
21.72636 3945.000
21.74664 3132.000
21.76692 2507.000
21.78720 1991.000
21.80748 1702.000
21.82776 1433.000
21.84804 1387.000
21.86832 1320.000
21.88860 1322.000
21.90888 1235.000
21.92916 1318.000
21.94944 1422.000
21.96972 1476.000
21.99000 1441.000
22.01028 1507.000
22.03056 1662.000
22.05084 1820.000
22.07112 1982.000
22.09140 2134.000
22.11168 2305.000
22.13196 2402.000
22.15224 2626.000
22.17252 2521.000
22.19280 2415.000
22.21308 2210.000
22.23336 1834.000
22.25364 1613.000
22.27392 1299.000
22.29420 1120.000
22.31448 1033.000
22.33476 989.000
22.35504 948.000
22.37532 967.000
22.39560 1005.000
22.41588 949.000
22.43616 1012.000
22.45644 992.000
22.47672 1111.000
22.49700 1140.000
22.51728 1160.000
22.53756 1269.000
22.55784 1268.000
22.57812 1305.000
22.59840 1309.000
22.61868 1255.000
22.63896 1438.000
22.65924 1413.000
22.67952 1600.000
22.69980 1689.000
22.72008 1762.000
22.74036 1689.000
22.76064 1585.000
22.78092 1349.000
22.80120 1310.000
22.82148 1146.000
22.84176 1050.000
22.86204 990.000
22.88232 937.000
22.90261 883.000
22.92289 901.000
22.94317 870.000
22.96345 1010.000
22.98373 910.000
23.00401 1070.000
23.02429 979.000
23.04457 1039.000
23.06485 1010.000
23.08513 917.000
23.10541 876.000
23.12569 860.000
23.14597 811.000
23.16625 845.000
23.18653 873.000
23.20681 825.000
23.22709 829.000
23.24737 967.000
23.26765 1077.000
23.28793 1102.000
23.30821 1209.000
23.32849 1358.000
23.34877 1396.000
23.36905 1574.000
23.38933 1613.000
23.40961 1692.000
23.42989 1698.000
23.45017 1643.000
23.47045 1496.000
23.49073 1432.000
23.51101 1318.000
23.53129 1245.000
23.55157 1177.000
23.57185 1169.000
23.59213 1171.000
23.61241 1153.000
23.63269 1121.000
23.65297 1177.000
23.67325 1165.000
23.69353 1101.000
23.71381 1103.000
23.73409 1129.000
23.75437 1056.000
23.77465 1030.000
23.79493 1067.000
23.81521 1111.000
23.83549 1156.000
23.85577 1193.000
23.87605 1265.000
23.89633 1310.000
23.91661 1381.000
23.93689 1388.000
23.95717 1446.000
23.97745 1482.000
23.99773 1481.000
24.01801 1416.000
24.03829 1475.000
24.05857 1474.000
24.07885 1434.000
24.09913 1490.000
24.11941 1518.000
24.13969 1421.000
24.15997 1488.000
24.18025 1554.000
24.20053 1389.000
24.22081 1266.000
24.24109 1172.000
24.26137 1111.000
24.28165 1094.000
24.30193 983.000
24.32221 1012.000
24.34249 1067.000
24.36277 1128.000
24.38305 1095.000
24.40333 1116.000
24.42361 1169.000
24.44389 1101.000
24.46417 1078.000
24.48445 961.000
24.50473 1050.000
24.52501 985.000
24.54529 980.000
24.56557 930.000
24.58585 1013.000
24.60613 1022.000
24.62641 1092.000
24.64669 1168.000
24.66697 1250.000
24.68725 1258.000
24.70753 1430.000
24.72781 1465.000
24.74809 1496.000
24.76837 1423.000
24.78865 1346.000
24.80893 1289.000
24.82922 1144.000
24.84950 1195.000
24.86978 1074.000
24.89006 1003.000
24.91034 934.000
24.93062 914.000
24.95090 856.000
24.97118 825.000
24.99146 817.000
25.01174 778.000
25.03202 863.000
25.05230 912.000
25.07258 959.000
25.09286 1097.000
25.11314 1094.000
25.13342 1140.000
25.15370 1384.000
25.17398 1510.000
25.19426 1633.000
25.21454 1939.000
25.23482 2101.000
25.25510 2185.000
25.27538 2464.000
25.29566 2625.000
25.31594 2682.000
25.33622 2619.000
25.35650 2412.000
25.37678 2277.000
25.39706 1981.000
25.41734 1829.000
25.43762 1651.000
25.45790 1501.000
25.47818 1367.000
25.49846 1170.000
25.51874 1106.000
25.53902 975.000
25.55930 894.000
25.57958 916.000
25.59986 905.000
25.62014 874.000
25.64042 963.000
25.66070 958.000
25.68098 1003.000
25.70126 1120.000
25.72154 1172.000
25.74182 1216.000
25.76210 1313.000
25.78238 1311.000
25.80266 1299.000
25.82294 1338.000
25.84322 1258.000
25.86350 1147.000
25.88378 1099.000
25.90406 1175.000
25.92434 1082.000
25.94462 1210.000
25.96490 1280.000
25.98518 1325.000
26.00546 1399.000
26.02574 1572.000
26.04602 1570.000
26.06630 1736.000
26.08658 1785.000
26.10686 1725.000
26.12714 1658.000
26.14742 1588.000
26.16770 1430.000
26.18798 1446.000
26.20826 1342.000
26.22854 1264.000
26.24882 1296.000
26.26910 1335.000
26.28938 1441.000
26.30966 1350.000
26.32994 1333.000
26.35022 1300.000
26.37050 1284.000
26.39078 1305.000
26.41106 1219.000
26.43134 1259.000
26.45162 1389.000
26.47190 1244.000
26.49218 1223.000
26.51246 1113.000
26.53274 1110.000
26.55302 951.000
26.57330 921.000
26.59358 819.000
26.61386 795.000
26.63414 763.000
26.65442 711.000
26.67470 738.000
26.69498 731.000
26.71526 716.000
26.73555 757.000
26.75583 748.000
26.77611 818.000
26.79639 823.000
26.81667 895.000
26.83695 898.000
26.85723 1015.000
26.87751 974.000
26.89779 1046.000
26.91807 1010.000
26.93835 899.000
26.95863 852.000
26.97891 835.000
26.99919 777.000
27.01947 700.000
27.03975 720.000
27.06003 668.000
27.08031 630.000
27.10059 610.000
27.12087 607.000
27.14115 617.000
27.16143 662.000
27.18171 597.000
27.20199 597.000
27.22227 603.000
27.24255 693.000
27.26283 717.000
27.28311 688.000
27.30339 696.000
27.32367 675.000
27.34395 734.000
27.36423 695.000
27.38451 702.000
27.40479 804.000
27.42507 683.000
27.44535 754.000
27.46563 853.000
27.48591 772.000
27.50619 824.000
27.52647 787.000
27.54675 756.000
27.56703 738.000
27.58731 709.000
27.60759 604.000
27.62787 592.000
27.64815 524.000
27.66843 535.000
27.68871 546.000
27.70899 498.000
27.72927 481.000
27.74955 526.000
27.76983 508.000
27.79011 494.000
27.81039 547.000
27.83067 488.000
27.85095 516.000
27.87123 572.000
27.89151 536.000
27.91179 559.000
27.93207 487.000
27.95235 571.000
27.97263 577.000
27.99291 556.000
28.01319 573.000
28.03347 581.000
28.05375 528.000
28.07403 506.000
28.09431 528.000
28.11459 527.000
28.13487 562.000
28.15515 566.000
28.17543 535.000
28.19571 563.000
28.21599 571.000
28.23627 586.000
28.25655 643.000
28.27683 614.000
28.29711 670.000
28.31739 720.000
28.33767 745.000
28.35795 832.000
28.37823 971.000
28.39851 985.000
28.41879 1111.000
28.43907 1166.000
28.45935 1235.000
28.47963 1375.000
28.49991 1445.000
28.52019 1632.000
28.54047 1672.000
28.56075 1778.000
28.58103 1727.000
28.60131 1623.000
28.62159 1526.000
28.64188 1454.000
28.66216 1467.000
28.68244 1334.000
28.70272 1270.000
28.72300 1206.000
28.74328 1155.000
28.76356 1086.000
28.78384 1050.000
28.80412 920.000
28.82440 802.000
28.84468 764.000
28.86496 697.000
28.88524 599.000
28.90552 619.000
28.92580 577.000
28.94608 600.000
28.96636 570.000
28.98664 535.000
29.00692 562.000
29.02720 558.000
29.04748 561.000
29.06776 543.000
29.08804 594.000
29.10832 591.000
29.12860 673.000
29.14888 638.000
29.16916 663.000
29.18944 632.000
29.20972 609.000
29.23000 567.000
29.25028 588.000
29.27056 564.000
29.29084 546.000
29.31112 535.000
29.33140 561.000
29.35168 529.000
29.37196 499.000
29.39224 553.000
29.41252 507.000
29.43280 511.000
29.45308 536.000
29.47336 546.000
29.49364 578.000
29.51392 590.000
29.53420 619.000
29.55448 670.000
29.57476 671.000
29.59504 731.000
29.61532 853.000
29.63560 846.000
29.65588 930.000
29.67616 982.000
29.69644 1099.000
29.71672 1104.000
29.73700 1160.000
29.75728 1245.000
29.77756 1315.000
29.79784 1366.000
29.81812 1237.000
29.83840 1365.000
29.85868 1271.000
29.87896 1204.000
29.89924 1189.000
29.91952 1140.000
29.93980 1148.000
29.96008 1116.000
29.98036 1103.000
30.00064 1144.000
30.02092 1141.000
30.04120 1199.000
30.06148 1051.000
30.08176 1080.000
30.10204 1069.000
30.12232 985.000
30.14260 950.000
30.16288 953.000
30.18316 965.000
30.20344 974.000
30.22372 875.000
30.24400 846.000
30.26428 851.000
30.28456 800.000
30.30484 790.000
30.32512 760.000
30.34540 734.000
30.36568 675.000
30.38596 704.000
30.40624 632.000
30.42652 614.000
30.44680 609.000
30.46708 572.000
30.48736 532.000
30.50764 538.000
30.52792 524.000
30.54821 480.000
30.56849 508.000
30.58877 557.000
30.60905 502.000
30.62933 481.000
30.64961 528.000
30.66989 569.000
30.69017 551.000
30.71045 616.000
30.73073 584.000
30.75101 608.000
30.77129 584.000
30.79157 627.000
30.81185 653.000
30.83213 642.000
30.85241 636.000
30.87269 686.000
30.89297 629.000
30.91325 680.000
30.93353 679.000
30.95381 661.000
30.97409 716.000
30.99437 614.000
31.01465 638.000
31.03493 631.000
31.05521 603.000
31.07549 597.000
31.09577 614.000
31.11605 648.000
31.13633 635.000
31.15661 724.000
31.17689 654.000
31.19717 723.000
31.21745 757.000
31.23773 815.000
31.25801 829.000
31.27829 831.000
31.29857 839.000
31.31885 873.000
31.33913 921.000
31.35941 916.000
31.37969 873.000
31.39997 927.000
31.42025 937.000
31.44053 939.000
31.46081 991.000
31.48109 1010.000
31.50137 950.000
31.52165 1086.000
31.54193 1130.000
31.56221 1187.000
31.58249 1294.000
31.60277 1219.000
31.62305 1324.000
31.64333 1266.000
31.66361 1233.000
31.68389 1195.000
31.70417 1164.000
31.72445 1126.000
31.74473 1077.000
31.76501 974.000
31.78529 911.000
31.80557 889.000
31.82585 818.000
31.84613 836.000
31.86641 830.000
31.88669 794.000
31.90697 828.000
31.92725 806.000
31.94753 811.000
31.96781 843.000
31.98809 881.000
32.00837 862.000
32.02865 920.000
32.04893 873.000
32.06921 833.000
32.08949 804.000
32.10977 762.000
32.13005 704.000
32.15033 688.000
32.17061 652.000
32.19089 613.000
32.21117 632.000
32.23145 587.000
32.25173 588.000
32.27201 589.000
32.29229 637.000
32.31257 602.000
32.33285 654.000
32.35313 669.000
32.37341 641.000
32.39369 599.000
32.41397 610.000
32.43425 564.000
32.45454 572.000
32.47482 506.000
32.49510 543.000
32.51538 505.000
32.53566 501.000
32.55594 480.000
32.57622 485.000
32.59650 472.000
32.61678 497.000
32.63706 514.000
32.65734 523.000
32.67762 482.000
32.69790 526.000
32.71818 463.000
32.73846 523.000
32.75874 475.000
32.77902 487.000
32.79930 523.000
32.81958 528.000
32.83986 475.000
32.86014 466.000
32.88042 489.000
32.90070 533.000
32.92098 539.000
32.94126 518.000
32.96154 574.000
32.98182 599.000
33.00210 509.000
33.02238 618.000
33.04266 630.000
33.06294 651.000
33.08322 641.000
33.10350 694.000
33.12378 716.000
33.14406 722.000
33.16434 653.000
33.18462 673.000
33.20490 650.000
33.22518 682.000
33.24546 562.000
33.26574 633.000
33.28602 575.000
33.30630 570.000
33.32658 545.000
33.34686 517.000
33.36714 540.000
33.38742 542.000
33.40770 581.000
33.42798 526.000
33.44826 604.000
33.46854 623.000
33.48882 602.000
33.50910 619.000
33.52938 629.000
33.54966 651.000
33.56994 682.000
33.59022 668.000
33.61050 677.000
33.63078 712.000
33.65106 651.000
33.67134 715.000
33.69162 687.000
33.71190 661.000
33.73218 632.000
33.75246 612.000
33.77274 520.000
33.79302 533.000
33.81330 549.000
33.83358 500.000
33.85386 491.000
33.87414 521.000
33.89442 489.000
33.91470 508.000
33.93498 486.000
33.95526 525.000
33.97554 481.000
33.99582 475.000
34.01610 487.000
34.03638 450.000
34.05666 477.000
34.07694 450.000
34.09722 481.000
34.11750 504.000
34.13778 441.000
34.15806 502.000
34.17834 498.000
34.19862 492.000
34.21890 490.000
34.23918 449.000
34.25946 432.000
34.27974 426.000
34.30002 410.000
34.32030 460.000
34.34058 449.000
34.36087 459.000
34.38115 391.000
34.40143 465.000
34.42171 384.000
34.44199 455.000
34.46227 436.000
34.48255 454.000
34.50283 484.000
34.52311 464.000
34.54339 450.000
34.56367 504.000
34.58395 493.000
34.60423 513.000
34.62451 518.000
34.64479 534.000
34.66507 531.000
34.68535 536.000
34.70563 559.000
34.72591 569.000
34.74619 558.000
34.76647 618.000
34.78675 612.000
34.80703 598.000
34.82731 708.000
34.84759 667.000
34.86787 648.000
34.88815 728.000
34.90843 750.000
34.92871 779.000
34.94899 804.000
34.96927 890.000
34.98955 843.000
35.00983 830.000
35.03011 836.000
35.05039 802.000
35.07067 768.000
35.09095 798.000
35.11123 779.000
35.13151 759.000
35.15179 772.000
35.17207 738.000
35.19235 765.000
35.21263 751.000
35.23291 759.000
35.25319 722.000
35.27347 747.000
35.29375 743.000
35.31403 713.000
35.33431 696.000
35.35459 714.000
35.37487 615.000
35.39515 571.000
35.41543 569.000
35.43571 543.000
35.45599 522.000
35.47627 522.000
35.49655 517.000
35.51683 510.000
35.53711 508.000
35.55739 455.000
35.57767 513.000
35.59795 517.000
35.61823 464.000
35.63851 499.000
35.65879 472.000
35.67907 469.000
35.69935 518.000
35.71963 484.000
35.73991 464.000
35.76019 478.000
35.78047 513.000
35.80075 506.000
35.82103 534.000
35.84131 510.000
35.86159 468.000
35.88187 540.000
35.90215 578.000
35.92243 649.000
35.94271 598.000
35.96299 675.000
35.98327 630.000
36.00355 663.000
36.02383 684.000
36.04411 696.000
36.06439 808.000
36.08467 723.000
36.10495 846.000
36.12523 811.000
36.14551 864.000
36.16579 883.000
36.18607 866.000
36.20635 899.000
36.22663 863.000
36.24691 787.000
36.26720 879.000
36.28748 869.000
36.30776 824.000
36.32804 803.000
36.34832 794.000
36.36860 667.000
36.38888 720.000
36.40916 668.000
36.42944 603.000
36.44972 621.000
36.47000 577.000
36.49028 578.000
36.51056 583.000
36.53084 529.000
36.55112 563.000
36.57140 528.000
36.59168 522.000
36.61196 526.000
36.63224 547.000
36.65252 520.000
36.67280 530.000
36.69308 542.000
36.71336 519.000
36.73364 499.000
36.75392 497.000
36.77420 498.000
36.79448 496.000
36.81476 453.000
36.83504 492.000
36.85532 484.000
36.87560 441.000
36.89588 463.000
36.91616 463.000
36.93644 483.000
36.95672 445.000
36.97700 463.000
36.99728 455.000
37.01756 512.000
37.03784 495.000
37.05812 503.000
37.07840 481.000
37.09868 497.000
37.11896 540.000
37.13924 587.000
37.15952 593.000
37.17980 598.000
37.20008 637.000
37.22036 597.000
37.24064 625.000
37.26092 577.000
37.28120 606.000
37.30148 591.000
37.32176 542.000
37.34204 575.000
37.36232 564.000
37.38260 536.000
37.40288 484.000
37.42316 531.000
37.44344 484.000
37.46372 500.000
37.48400 453.000
37.50428 492.000
37.52456 460.000
37.54484 460.000
37.56512 429.000
37.58540 438.000
37.60568 470.000
37.62596 442.000
37.64624 421.000
37.66652 427.000
37.68680 416.000
37.70708 465.000
37.72736 460.000
37.74764 502.000
37.76792 466.000
37.78820 492.000
37.80848 551.000
37.82876 524.000
37.84904 556.000
37.86932 497.000
37.88960 536.000
37.90988 591.000
37.93016 579.000
37.95044 545.000
37.97072 595.000
37.99100 578.000
38.01128 604.000
38.03156 584.000
38.05184 535.000
38.07212 523.000
38.09240 526.000
38.11268 552.000
38.13296 560.000
38.15324 552.000
38.17353 531.000
38.19381 580.000
38.21409 592.000
38.23437 596.000
38.25465 622.000
38.27493 662.000
38.29521 649.000
38.31549 657.000
38.33577 566.000
38.35605 589.000
38.37633 644.000
38.39661 651.000
38.41689 602.000
38.43717 621.000
38.45745 661.000
38.47773 643.000
38.49801 566.000
38.51829 589.000
38.53857 543.000
38.55885 552.000
38.57913 550.000
38.59941 515.000
38.61969 484.000
38.63997 490.000
38.66025 519.000
38.68053 507.000
38.70081 539.000
38.72109 551.000
38.74137 510.000
38.76165 563.000
38.78193 552.000
38.80221 598.000
38.82249 634.000
38.84277 573.000
38.86305 619.000
38.88333 620.000
38.90361 611.000
38.92389 677.000
38.94417 699.000
38.96445 716.000
38.98473 705.000
39.00501 734.000
39.02529 732.000
39.04557 805.000
39.06585 691.000
39.08613 668.000
39.10641 635.000
39.12669 591.000
39.14697 618.000
39.16725 609.000
39.18753 543.000
39.20781 540.000
39.22809 515.000
39.24837 559.000
39.26865 527.000
39.28893 487.000
39.30921 484.000
39.32949 487.000
39.34977 504.000
39.37005 512.000
39.39033 558.000
39.41061 506.000
39.43089 567.000
39.45117 532.000
39.47145 534.000
39.49173 539.000
39.51201 554.000
39.53229 551.000
39.55257 534.000
39.57285 568.000
39.59313 564.000
39.61341 568.000
39.63369 526.000
39.65397 538.000
39.67425 514.000
39.69453 518.000
39.71481 500.000
39.73509 514.000
39.75537 484.000
39.77565 502.000
39.79593 535.000
39.81621 503.000
39.83649 491.000
39.85677 526.000
39.87705 555.000
39.89733 491.000
39.91761 505.000
39.93789 536.000
39.95817 493.000
39.97845 564.000
39.99873 554.000
