5.00155 1075.000
5.02183 940.000
5.04211 895.000
5.06239 868.000
5.08267 833.000
5.10295 847.000
5.12323 844.000
5.14351 854.000
5.16379 796.000
5.18407 828.000
5.20435 801.000
5.22463 741.000
5.24491 786.000
5.26519 808.000
5.28547 732.000
5.30575 737.000
5.32603 720.000
5.34631 686.000
5.36659 761.000
5.38687 663.000
5.40715 716.000
5.42743 726.000
5.44771 720.000
5.46799 642.000
5.48827 675.000
5.50855 706.000
5.52883 650.000
5.54911 667.000
5.56939 653.000
5.58967 651.000
5.60995 670.000
5.63023 577.000
5.65051 603.000
5.67079 599.000
5.69107 588.000
5.71135 653.000
5.73163 660.000
5.75191 584.000
5.77219 623.000
5.79247 614.000
5.81275 586.000
5.83303 533.000
5.85331 662.000
5.87359 547.000
5.89387 582.000
5.91415 587.000
5.93443 552.000
5.95471 538.000
5.97499 497.000
5.99527 522.000
6.01555 488.000
6.03583 571.000
6.05611 515.000
6.07639 532.000
6.09667 519.000
6.11695 517.000
6.13723 597.000
6.15751 530.000
6.17779 521.000
6.19807 497.000
6.21835 512.000
6.23863 534.000
6.25891 506.000
6.27919 510.000
6.29947 520.000
6.31975 533.000
6.34003 575.000
6.36031 607.000
6.38059 569.000
6.40087 567.000
6.42115 592.000
6.44143 575.000
6.46171 623.000
6.48199 591.000
6.50227 652.000
6.52255 712.000
6.54283 729.000
6.56311 832.000
6.58339 918.000
6.60367 1136.000
6.62395 1318.000
6.64423 1506.000
6.66451 1777.000
6.68479 2245.000
6.70507 2800.000
6.72536 3364.000
6.74564 4231.000
6.76592 4756.000
6.78620 5364.000
6.80648 5582.000
6.82676 5335.000
6.84704 5106.000
6.86732 4295.000
6.88760 3486.000
6.90788 2493.000
6.92816 1756.000
6.94844 1230.000
6.96872 886.000
6.98900 748.000
7.00928 752.000
7.02956 682.000
7.04984 666.000
7.07012 625.000
7.09040 563.000
7.11068 505.000
7.13096 553.000
7.15124 545.000
7.17152 493.000
7.19180 485.000
7.21208 538.000
7.23236 462.000
7.25264 465.000
7.27292 417.000
7.29320 443.000
7.31348 423.000
7.33376 467.000
7.35404 431.000
7.37432 414.000
7.39460 439.000
7.41488 448.000
7.43516 423.000
7.45544 446.000
7.47572 398.000
7.49600 470.000
7.51628 431.000
7.53656 441.000
7.55684 435.000
7.57712 462.000
7.59740 398.000
7.61768 387.000
7.63796 381.000
7.65824 458.000
7.67852 426.000
7.69880 471.000
7.71908 403.000
7.73936 450.000
7.75964 404.000
7.77992 427.000
7.80020 428.000
7.82048 438.000
7.84076 473.000
7.86104 412.000
7.88132 486.000
7.90160 462.000
7.92188 480.000
7.94216 440.000
7.96244 467.000
7.98272 501.000
8.00300 621.000
8.02328 524.000
8.04356 559.000
8.06384 656.000
8.08412 605.000
8.10440 713.000
8.12468 836.000
8.14496 921.000
8.16524 1020.000
8.18552 1282.000
8.20580 1487.000
8.22608 1740.000
8.24636 2140.000
8.26664 2504.000
8.28692 3074.000
8.30720 3943.000
8.32748 4678.000
8.34776 5448.000
8.36804 5720.000
8.38832 5865.000
8.40860 5402.000
8.42888 4175.000
8.44916 3088.000
8.46944 2150.000
8.48972 1601.000
8.51000 1241.000
8.53028 1006.000
8.55056 913.000
8.57084 778.000
8.59112 732.000
8.61140 775.000
8.63168 785.000
8.65197 724.000
8.67225 697.000
8.69253 597.000
8.71281 572.000
8.73309 522.000
8.75337 542.000
8.77365 520.000
8.79393 470.000
8.81421 459.000
8.83449 454.000
8.85477 465.000
8.87505 449.000
8.89533 448.000
8.91561 449.000
8.93589 418.000
8.95617 414.000
8.97645 422.000
8.99673 393.000
9.01701 433.000
9.03729 435.000
9.05757 446.000
9.07785 399.000
9.09813 411.000
9.11841 425.000
9.13869 426.000
9.15897 401.000
9.17925 410.000
9.19953 397.000
9.21981 440.000
9.24009 412.000
9.26037 402.000
9.28065 434.000
9.30093 436.000
9.32121 386.000
9.34149 404.000
9.36177 418.000
9.38205 427.000
9.40233 435.000
9.42261 459.000
9.44289 484.000
9.46317 458.000
9.48345 510.000
9.50373 499.000
9.52401 465.000
9.54429 399.000
9.56457 425.000
9.58485 428.000
9.60513 421.000
9.62541 405.000
9.64569 399.000
9.66597 416.000
9.68625 424.000
9.70653 430.000
9.72681 403.000
9.74709 431.000
9.76737 409.000
9.78765 467.000
9.80793 508.000
9.82821 460.000
9.84849 521.000
9.86877 514.000
9.88905 504.000
9.90933 514.000
9.92961 519.000
9.94989 455.000
9.97017 427.000
9.99045 432.000
10.01073 442.000
10.03101 394.000
10.05129 416.000
10.07157 427.000
10.09185 401.000
10.11213 380.000
10.13241 377.000
10.15269 363.000
10.17297 399.000
10.19325 416.000
10.21353 418.000
10.23381 445.000
10.25409 384.000
10.27437 432.000
10.29465 388.000
10.31493 401.000
10.33521 439.000
10.35549 460.000
10.37577 458.000
10.39605 511.000
10.41633 522.000
10.43661 618.000
10.45689 635.000
10.47717 758.000
10.49745 895.000
10.51773 983.000
10.53801 1072.000
10.55830 1171.000
10.57858 1142.000
10.59886 1058.000
10.61914 881.000
10.63942 775.000
10.65970 609.000
10.67998 541.000
10.70026 488.000
10.72054 479.000
10.74082 405.000
10.76110 431.000
10.78138 468.000
10.80166 468.000
10.82194 449.000
10.84222 404.000
10.86250 426.000
10.88278 420.000
10.90306 449.000
10.92334 385.000
10.94362 462.000
10.96390 400.000
10.98418 410.000
11.00446 391.000
11.02474 406.000
11.04502 364.000
11.06530 372.000
11.08558 338.000
11.10586 355.000
11.12614 366.000
11.14642 333.000
11.16670 345.000
11.18698 371.000
11.20726 336.000
11.22754 379.000
11.24782 355.000
11.26810 361.000
11.28838 347.000
11.30866 345.000
11.32894 373.000
11.34922 358.000
11.36950 383.000
11.38978 355.000
11.41006 328.000
11.43034 333.000
11.45062 374.000
11.47090 342.000
11.49118 382.000
11.51146 346.000
11.53174 355.000
11.55202 353.000
11.57230 358.000
11.59258 343.000
11.61286 347.000
11.63314 354.000
11.65342 365.000
11.67370 338.000
11.69398 389.000
11.71426 363.000
11.73454 317.000
11.75482 359.000
11.77510 333.000
11.79538 367.000
11.81566 339.000
11.83594 349.000
11.85622 381.000
11.87650 356.000
11.89678 358.000
11.91706 373.000
11.93734 357.000
11.95762 325.000
11.97790 374.000
11.99818 355.000
12.01846 364.000
12.03874 366.000
12.05902 371.000
12.07930 345.000
12.09958 362.000
12.11986 379.000
12.14014 329.000
12.16042 379.000
12.18070 356.000
12.20098 337.000
12.22126 386.000
12.24154 382.000
12.26182 376.000
12.28210 414.000
12.30238 352.000
12.32266 392.000
12.34294 387.000
12.36322 386.000
12.38350 426.000
12.40378 430.000
12.42406 450.000
12.44434 371.000
12.46463 389.000
12.48491 369.000
12.50519 349.000
12.52547 362.000
12.54575 378.000
12.56603 345.000
12.58631 340.000
12.60659 379.000
12.62687 371.000
12.64715 385.000
12.66743 395.000
12.68771 363.000
12.70799 380.000
12.72827 382.000
12.74855 335.000
12.76883 344.000
12.78911 345.000
12.80939 339.000
12.82967 351.000
12.84995 370.000
12.87023 398.000
12.89051 352.000
12.91079 357.000
12.93107 389.000
12.95135 393.000
12.97163 408.000
12.99191 448.000
13.01219 400.000
13.03247 452.000
13.05275 489.000
13.07303 520.000
13.09331 597.000
13.11359 629.000
13.13387 680.000
13.15415 792.000
13.17443 835.000
13.19471 838.000
13.21499 933.000
13.23527 849.000
13.25555 812.000
13.27583 810.000
13.29611 907.000
13.31639 963.000
13.33667 1045.000
13.35695 989.000
13.37723 1007.000
13.39751 997.000
13.41779 983.000
13.43807 1039.000
13.45835 1070.000
13.47863 1276.000
13.49891 1483.000
13.51919 1507.000
13.53947 1613.000
13.55975 1628.000
13.58003 1496.000
13.60031 1446.000
13.62059 1194.000
13.64087 1128.000
13.66115 1012.000
13.68143 1062.000
13.70171 852.000
13.72199 754.000
13.74227 715.000
13.76255 585.000
13.78283 519.000
13.80311 536.000
13.82339 511.000
13.84367 466.000
13.86395 514.000
13.88423 453.000
13.90451 452.000
13.92479 454.000
13.94507 430.000
13.96535 435.000
13.98563 405.000
14.00591 415.000
14.02619 376.000
14.04647 413.000
14.06675 397.000
14.08703 377.000
14.10731 396.000
14.12759 404.000
14.14787 410.000
14.16815 434.000
14.18843 407.000
14.20871 431.000
14.22899 449.000
14.24927 442.000
14.26955 452.000
14.28983 383.000
14.31011 422.000
14.33039 446.000
14.35067 455.000
14.37096 483.000
14.39124 455.000
14.41152 503.000
14.43180 538.000
14.45208 563.000
14.47236 523.000
14.49264 614.000
14.51292 759.000
14.53320 844.000
14.55348 980.000
14.57376 1047.000
14.59404 1322.000
14.61432 1582.000
14.63460 1799.000
14.65488 2141.000
14.67516 2296.000
14.69544 2259.000
14.71572 1891.000
14.73600 1639.000
14.75628 1337.000
14.77656 1168.000
14.79684 1039.000
14.81712 995.000
14.83740 1104.000
14.85768 1138.000
14.87796 1341.000
14.89824 1364.000
14.91852 1388.000
14.93880 1457.000
14.95908 1334.000
14.97936 1123.000
14.99964 923.000
15.01992 790.000
15.04020 642.000
15.06048 551.000
15.08076 541.000
15.10104 485.000
15.12132 535.000
15.14160 474.000
15.16188 456.000
15.18216 434.000
15.20244 412.000
15.22272 451.000
15.24300 451.000
15.26328 435.000
15.28356 464.000
15.30384 446.000
15.32412 430.000
15.34440 427.000
15.36468 439.000
15.38496 368.000
15.40524 442.000
15.42552 431.000
15.44580 474.000
15.46608 448.000
15.48636 448.000
15.50664 433.000
15.52692 466.000
15.54720 457.000
15.56748 434.000
15.58776 471.000
15.60804 435.000
15.62832 489.000
15.64860 495.000
15.66888 439.000
15.68916 459.000
15.70944 495.000
15.72972 483.000
15.75000 444.000
15.77028 456.000
15.79056 493.000
15.81084 479.000
15.83112 461.000
15.85140 511.000
15.87168 490.000
15.89196 476.000
15.91224 517.000
15.93252 541.000
15.95280 578.000
15.97308 601.000
15.99336 623.000
16.01364 625.000
16.03392 688.000
16.05420 722.000
16.07448 668.000
16.09476 759.000
16.11504 796.000
16.13532 718.000
16.15560 794.000
16.17588 948.000
16.19616 1010.000
16.21644 1100.000
16.23672 1320.000
16.25700 1516.000
16.27729 1720.000
16.29757 2107.000
16.31785 2536.000
16.33813 2815.000
16.35841 3129.000
16.37869 3281.000
16.39897 3172.000
16.41925 2939.000
16.43953 2723.000
16.45981 2253.000
16.48009 2152.000
16.50037 1832.000
16.52065 1704.000
16.54093 1615.000
16.56121 1770.000
16.58149 1652.000
16.60177 1946.000
16.62205 1940.000
16.64233 2067.000
16.66261 2030.000
16.68289 2106.000
16.70317 2100.000
16.72345 2295.000
16.74373 2485.000
16.76401 2709.000
16.78429 2772.000
16.80457 2815.000
16.82485 2646.000
16.84513 2564.000
16.86541 2149.000
16.88569 1897.000
16.90597 1792.000
16.92625 1776.000
16.94653 1803.000
16.96681 2071.000
16.98709 2413.000
17.00737 2735.000
17.02765 3150.000
17.04793 3537.000
17.06821 4099.000
17.08849 4491.000
17.10877 4601.000
17.12905 4471.000
17.14933 4162.000
17.16961 3781.000
17.18989 3081.000
17.21017 2516.000
17.23045 2005.000
17.25073 1754.000
17.27101 1460.000
17.29129 1279.000
17.31157 1137.000
17.33185 1147.000
17.35213 993.000
17.37241 960.000
17.39269 928.000
17.41297 851.000
17.43325 868.000
17.45353 835.000
17.47381 774.000
17.49409 729.000
17.51437 749.000
17.53465 762.000
17.55493 764.000
17.57521 807.000
17.59549 798.000
17.61577 837.000
17.63605 898.000
17.65633 917.000
17.67661 941.000
17.69689 993.000
17.71717 1029.000
17.73745 1122.000
17.75773 1118.000
17.77801 1210.000
17.79829 1261.000
17.81857 1192.000
17.83885 1334.000
17.85913 1439.000
17.87941 1644.000
17.89969 1797.000
17.91997 2162.000
17.94025 2481.000
17.96053 2820.000
17.98081 3431.000
18.00109 4112.000
18.02137 4873.000
18.04165 5501.000
18.06193 6104.000
18.08221 6736.000
18.10249 6680.000
18.12277 6559.000
18.14305 6118.000
18.16333 5199.000
18.18362 4358.000
18.20390 3769.000
18.22418 3003.000
18.24446 2482.000
18.26474 2108.000
18.28502 1894.000
18.30530 1648.000
18.32558 1535.000
18.34586 1459.000
18.36614 1414.000
18.38642 1361.000
18.40670 1344.000
18.42698 1262.000
18.44726 1224.000
18.46754 1350.000
18.48782 1367.000
18.50810 1457.000
18.52838 1568.000
18.54866 1753.000
18.56894 1930.000
18.58922 2122.000
18.60950 2503.000
18.62978 2773.000
18.65006 3019.000
18.67034 3231.000
18.69062 3402.000
18.71090 3475.000
18.73118 3158.000
18.75146 3054.000
18.77174 2836.000
18.79202 2474.000
18.81230 2054.000
18.83258 1930.000
18.85286 1782.000
18.87314 1569.000
18.89342 1439.000
18.91370 1465.000
18.93398 1426.000
18.95426 1441.000
18.97454 1457.000
18.99482 1549.000
19.01510 1611.000
19.03538 1637.000
19.05566 1555.000
19.07594 1474.000
19.09622 1448.000
19.11650 1318.000
19.13678 1154.000
19.15706 1077.000
19.17734 1104.000
19.19762 1021.000
19.21790 1027.000
19.23818 1009.000
19.25846 1105.000
19.27874 1141.000
19.29902 1229.000
19.31930 1321.000
19.33958 1452.000
19.35986 1574.000
19.38014 1752.000
19.40042 2184.000
19.42070 2403.000
19.44098 2845.000
19.46126 3140.000
19.48154 3618.000
19.50182 3875.000
19.52210 3986.000
19.54238 3783.000
19.56266 3581.000
19.58294 3228.000
19.60322 2857.000
19.62350 2412.000
19.64378 2065.000
19.66406 2004.000
19.68434 1950.000
19.70462 1835.000
19.72490 1858.000
19.74518 2018.000
19.76546 2140.000
19.78574 2360.000
19.80602 2489.000
19.82630 2825.000
19.84658 3047.000
19.86686 3310.000
19.88714 3669.000
19.90742 3975.000
19.92770 4147.000
19.94798 4024.000
19.96826 3862.000
19.98854 3375.000
20.00882 3043.000
20.02910 2747.000
20.04938 2625.000
20.06966 2502.000
20.08995 2381.000
20.11023 2315.000
20.13051 2412.000
20.15079 2494.000
20.17107 2671.000
20.19135 2872.000
20.21163 2886.000
20.23191 3065.000
20.25219 3097.000
20.27247 3130.000
20.29275 3563.000
20.31303 3766.000
20.33331 4018.000
20.35359 4317.000
20.37387 4172.000
20.39415 3657.000
20.41443 3032.000
20.43471 2605.000
20.45499 2070.000
20.47527 1683.000
20.49555 1511.000
20.51583 1304.000
20.53611 1265.000
20.55639 1267.000
20.57667 1231.000
20.59695 1297.000
20.61723 1142.000
20.63751 1132.000
20.65779 1093.000
20.67807 1023.000
20.69835 1042.000
20.71863 988.000
20.73891 901.000
20.75919 869.000
20.77947 902.000
20.79975 951.000
20.82003 878.000
20.84031 954.000
20.86059 988.000
20.88087 994.000
20.90115 953.000
20.92143 1040.000
20.94171 990.000
20.96199 1047.000
20.98227 1107.000
21.00255 1159.000
21.02283 1240.000
21.04311 1266.000
21.06339 1356.000
21.08367 1398.000
21.10395 1565.000
21.12423 1667.000
21.14451 1863.000
21.16479 2010.000
21.18507 2112.000
21.20535 2464.000
21.22563 2679.000
21.24591 2945.000
21.26619 3375.000
21.28647 3928.000
21.30675 4373.000
21.32703 4948.000
21.34731 5819.000
21.36759 6485.000
21.38787 7064.000
21.40815 7758.000
21.42843 8419.000
21.44871 8755.000
21.46899 8917.000
21.48927 9389.000
21.50955 9531.000
21.52983 9727.000
21.55011 9957.000
21.57039 9735.000
21.59067 9517.000
21.61095 9234.000
21.63123 8750.000
21.65151 8093.000
21.67179 7389.000
21.69207 6838.000
21.71235 5981.000
21.73263 4818.000
21.75291 4171.000
21.77319 3470.000
21.79347 2919.000
21.81375 2435.000
21.83403 2023.000
21.85431 1860.000
21.87459 1576.000
21.89487 1463.000
21.91515 1302.000
21.93543 1220.000
21.95571 1146.000
21.97599 1040.000
21.99628 1059.000
22.01656 1022.000
22.03684 963.000
22.05712 901.000
22.07740 938.000
22.09768 977.000
22.11796 1003.000
22.13824 898.000
22.15852 988.000
22.17880 983.000
22.19908 935.000
22.21936 964.000
22.23964 945.000
22.25992 1022.000
22.28020 961.000
22.30048 1017.000
22.32076 1048.000
22.34104 1068.000
22.36132 1104.000
22.38160 1188.000
22.40188 1210.000
22.42216 1329.000
22.44244 1373.000
22.46272 1372.000
22.48300 1394.000
22.50328 1460.000
22.52356 1500.000
22.54384 1402.000
22.56412 1381.000
22.58440 1340.000
22.60468 1251.000
22.62496 1166.000
22.64524 1103.000
22.66552 1100.000
22.68580 1106.000
22.70608 1114.000
22.72636 1143.000
22.74664 1080.000
22.76692 1148.000
22.78720 1236.000
22.80748 1208.000
22.82776 1332.000
22.84804 1454.000
22.86832 1403.000
22.88860 1495.000
22.90888 1606.000
22.92916 1515.000
22.94944 1607.000
22.96972 1515.000
22.99000 1460.000
23.01028 1510.000
23.03056 1352.000
23.05084 1254.000
23.07112 1224.000
23.09140 1073.000
23.11168 1070.000
23.13196 938.000
23.15224 914.000
23.17252 1029.000
23.19280 951.000
23.21308 1033.000
23.23336 1035.000
23.25364 1153.000
23.27392 1225.000
23.29420 1266.000
23.31448 1339.000
23.33476 1532.000
23.35504 1629.000
23.37532 1927.000
23.39560 1978.000
23.41588 2218.000
23.43616 2470.000
23.45644 2758.000
23.47672 2940.000
23.49700 3087.000
23.51728 3244.000
23.53756 3109.000
23.55784 3121.000
23.57812 2986.000
23.59840 2786.000
23.61868 2561.000
23.63896 2358.000
23.65924 2141.000
23.67952 2001.000
23.69980 1800.000
23.72008 1656.000
23.74036 1691.000
23.76064 1565.000
23.78092 1538.000
23.80120 1508.000
23.82148 1406.000
23.84176 1418.000
23.86204 1326.000
23.88232 1187.000
23.90261 1154.000
23.92289 1060.000
23.94317 1010.000
23.96345 954.000
23.98373 961.000
24.00401 915.000
24.02429 911.000
24.04457 921.000
24.06485 848.000
24.08513 858.000
24.10541 863.000
24.12569 886.000
24.14597 931.000
24.16625 995.000
24.18653 1100.000
24.20681 1107.000
24.22709 1191.000
24.24737 1244.000
24.26765 1441.000
24.28793 1493.000
24.30821 1625.000
24.32849 1752.000
24.34877 1927.000
24.36905 2083.000
24.38933 2210.000
24.40961 2302.000
24.42989 2113.000
24.45017 2048.000
24.47045 1841.000
24.49073 1599.000
24.51101 1447.000
24.53129 1220.000
24.55157 1141.000
24.57185 1102.000
24.59213 1022.000
24.61241 981.000
24.63269 1035.000
24.65297 1052.000
24.67325 1067.000
24.69353 1161.000
24.71381 1214.000
24.73409 1351.000
24.75437 1234.000
24.77465 1181.000
24.79493 1187.000
24.81521 1090.000
24.83549 1060.000
24.85577 1026.000
24.87605 983.000
24.89633 903.000
24.91661 889.000
24.93689 874.000
24.95717 943.000
24.97745 925.000
24.99773 951.000
25.01801 1079.000
25.03829 1053.000
25.05857 1179.000
25.07885 1309.000
25.09913 1437.000
25.11941 1456.000
25.13969 1574.000
25.15997 1573.000
25.18025 1759.000
25.20053 1787.000
25.22081 1793.000
25.24109 1818.000
25.26137 1805.000
25.28165 1694.000
25.30193 1755.000
25.32221 1538.000
25.34249 1513.000
25.36277 1428.000
25.38305 1374.000
25.40333 1373.000
25.42361 1332.000
25.44389 1391.000
25.46417 1315.000
25.48445 1365.000
25.50473 1287.000
25.52501 1189.000
25.54529 1161.000
25.56557 1081.000
25.58585 972.000
25.60613 943.000
25.62641 878.000
25.64669 846.000
25.66697 792.000
25.68725 848.000
25.70753 802.000
25.72781 840.000
25.74809 842.000
25.76837 809.000
25.78865 892.000
25.80893 869.000
25.82922 963.000
25.84950 971.000
25.86978 1053.000
25.89006 1078.000
25.91034 1182.000
25.93062 1273.000
25.95090 1306.000
25.97118 1431.000
25.99146 1516.000
26.01174 1534.000
26.03202 1675.000
26.05230 1775.000
26.07258 1701.000
26.09286 1750.000
26.11314 1630.000
26.13342 1543.000
26.15370 1578.000
26.17398 1451.000
26.19426 1305.000
26.21454 1241.000
26.23482 1202.000
26.25510 1139.000
26.27538 1175.000
26.29566 1117.000
26.31594 1091.000
26.33622 1154.000
26.35650 1159.000
26.37678 1209.000
26.39706 1159.000
26.41734 1247.000
26.43762 1284.000
26.45790 1390.000
26.47818 1421.000
26.49846 1529.000
26.51874 1496.000
26.53902 1651.000
26.55930 1555.000
26.57958 1592.000
26.59986 1548.000
26.62014 1509.000
26.64042 1537.000
26.66070 1547.000
26.68098 1410.000
26.70126 1405.000
26.72154 1375.000
26.74182 1273.000
26.76210 1204.000
26.78238 1311.000
26.80266 1249.000
26.82294 1315.000
26.84322 1399.000
26.86350 1421.000
26.88378 1479.000
26.90406 1658.000
26.92434 1534.000
26.94462 1677.000
26.96490 1792.000
26.98518 1646.000
27.00546 1679.000
27.02574 1700.000
27.04602 1544.000
27.06630 1603.000
27.08658 1562.000
27.10686 1366.000
27.12714 1376.000
27.14742 1391.000
27.16770 1321.000
27.18798 1338.000
27.20826 1181.000
27.22854 1251.000
27.24882 1180.000
27.26910 1208.000
27.28938 1092.000
27.30966 1124.000
27.32994 1173.000
27.35022 1194.000
27.37050 1209.000
27.39078 1257.000
27.41106 1212.000
27.43134 1248.000
27.45162 1371.000
27.47190 1250.000
27.49218 1226.000
27.51246 1266.000
27.53274 1169.000
27.55302 1086.000
27.57330 1127.000
27.59358 970.000
27.61386 892.000
27.63414 891.000
27.65442 757.000
27.67470 752.000
27.69498 693.000
27.71526 642.000
27.73555 639.000
27.75583 606.000
27.77611 595.000
27.79639 571.000
27.81667 569.000
27.83695 588.000
27.85723 583.000
27.87751 574.000
27.89779 570.000
27.91807 516.000
27.93835 573.000
27.95863 525.000
27.97891 527.000
27.99919 592.000
28.01947 529.000
28.03975 586.000
28.06003 532.000
28.08031 566.000
28.10059 525.000
28.12087 627.000
28.14115 611.000
28.16143 671.000
28.18171 615.000
28.20199 712.000
28.22227 678.000
28.24255 716.000
28.26283 735.000
28.28311 792.000
28.30339 855.000
28.32367 849.000
28.34395 854.000
28.36423 1009.000
28.38451 935.000
28.40479 1033.000
28.42507 1092.000
28.44535 1061.000
28.46563 1181.000
28.48591 1135.000
28.50619 1164.000
28.52647 1196.000
28.54675 1203.000
28.56703 1190.000
28.58731 1178.000
28.60759 1162.000
28.62787 1111.000
28.64815 1059.000
28.66843 1011.000
28.68871 963.000
28.70899 909.000
28.72927 936.000
28.74955 864.000
28.76983 778.000
28.79011 844.000
28.81039 858.000
28.83067 839.000
28.85095 832.000
28.87123 819.000
28.89151 830.000
28.91179 924.000
28.93207 891.000
28.95235 931.000
28.97263 1000.000
28.99291 1036.000
29.01319 1034.000
29.03347 1050.000
29.05375 1104.000
29.07403 1102.000
29.09431 1066.000
29.11459 1038.000
29.13487 1002.000
29.15515 992.000
29.17543 995.000
29.19571 934.000
29.21599 947.000
29.23627 911.000
29.25655 923.000
29.27683 919.000
29.29711 903.000
29.31739 959.000
29.33767 974.000
29.35795 999.000
29.37823 975.000
29.39851 962.000
29.41879 908.000
29.43907 945.000
29.45935 920.000
29.47963 877.000
29.49991 895.000
29.52019 868.000
29.54047 816.000
29.56075 871.000
29.58103 894.000
29.60131 869.000
29.62159 914.000
29.64188 877.000
29.66216 953.000
29.68244 962.000
29.70272 944.000
29.72300 1012.000
29.74328 1032.000
29.76356 1005.000
29.78384 1003.000
29.80412 1082.000
29.82440 1071.000
29.84468 1017.000
29.86496 1013.000
29.88524 1080.000
29.90552 1130.000
29.92580 1052.000
29.94608 1072.000
29.96636 1048.000
29.98664 1025.000
30.00692 992.000
30.02720 1008.000
30.04748 1031.000
30.06776 987.000
30.08804 925.000
30.10832 946.000
30.12860 907.000
30.14888 854.000
30.16916 843.000
30.18944 783.000
30.20972 746.000
30.23000 701.000
30.25028 766.000
30.27056 705.000
30.29084 769.000
30.31112 749.000
30.33140 772.000
30.35168 825.000
30.37196 790.000
30.39224 863.000
30.41252 866.000
30.43280 839.000
30.45308 927.000
30.47336 835.000
30.49364 778.000
30.51392 794.000
30.53420 728.000
30.55448 713.000
30.57476 664.000
30.59504 594.000
30.61532 578.000
30.63560 551.000
30.65588 524.000
30.67616 519.000
30.69644 530.000
30.71672 552.000
30.73700 501.000
30.75728 501.000
30.77756 544.000
30.79784 537.000
30.81812 571.000
30.83840 539.000
30.85868 557.000
30.87896 559.000
30.89924 578.000
30.91952 578.000
30.93980 650.000
30.96008 632.000
30.98036 630.000
31.00064 670.000
31.02092 676.000
31.04120 692.000
31.06148 758.000
31.08176 737.000
31.10204 748.000
31.12232 756.000
31.14260 728.000
31.16288 763.000
31.18316 737.000
31.20344 744.000
31.22372 712.000
31.24400 755.000
31.26428 678.000
31.28456 655.000
31.30484 700.000
31.32512 607.000
31.34540 586.000
31.36568 575.000
31.38596 592.000
31.40624 578.000
31.42652 540.000
31.44680 561.000
31.46708 520.000
31.48736 546.000
31.50764 559.000
31.52792 541.000
31.54821 550.000
31.56849 589.000
31.58877 617.000
31.60905 607.000
31.62933 620.000
31.64961 646.000
31.66989 652.000
31.69017 614.000
31.71045 725.000
31.73073 649.000
31.75101 668.000
31.77129 693.000
31.79157 653.000
31.81185 686.000
31.83213 722.000
31.85241 724.000
31.87269 707.000
31.89297 712.000
31.91325 733.000
31.93353 698.000
31.95381 744.000
31.97409 777.000
31.99437 700.000
32.01465 770.000
32.03493 749.000
32.05521 727.000
32.07549 643.000
32.09577 638.000
32.11605 691.000
32.13633 623.000
32.15661 669.000
32.17689 634.000
32.19717 616.000
32.21745 618.000
32.23773 615.000
32.25801 572.000
32.27829 585.000
32.29857 574.000
32.31885 648.000
32.33913 580.000
32.35941 579.000
32.37969 547.000
32.39997 548.000
32.42025 543.000
32.44053 557.000
32.46081 539.000
32.48109 511.000
32.50137 559.000
32.52165 473.000
32.54193 526.000
32.56221 508.000
32.58249 474.000
32.60277 529.000
32.62305 498.000
32.64333 497.000
32.66361 516.000
32.68389 566.000
32.70417 543.000
32.72445 567.000
32.74473 564.000
32.76501 574.000
32.78529 600.000
32.80557 590.000
32.82585 551.000
32.84613 593.000
32.86641 636.000
32.88669 596.000
32.90697 633.000
32.92725 594.000
32.94753 676.000
32.96781 679.000
32.98809 671.000
33.00837 671.000
33.02865 661.000
33.04893 658.000
33.06921 700.000
33.08949 646.000
33.10977 693.000
33.13005 674.000
33.15033 713.000
33.17061 719.000
33.19089 671.000
33.21117 694.000
33.23145 639.000
33.25173 785.000
33.27201 736.000
33.29229 739.000
33.31257 757.000
33.33285 791.000
33.35313 695.000
33.37341 789.000
33.39369 661.000
33.41397 752.000
33.43425 669.000
33.45454 678.000
33.47482 646.000
33.49510 585.000
33.51538 617.000
33.53566 574.000
33.55594 567.000
33.57622 604.000
33.59650 577.000
33.61678 559.000
33.63706 563.000
33.65734 528.000
33.67762 530.000
33.69790 521.000
33.71818 541.000
33.73846 579.000
33.75874 550.000
33.77902 561.000
33.79930 548.000
33.81958 588.000
33.83986 557.000
33.86014 559.000
33.88042 588.000
33.90070 583.000
33.92098 541.000
33.94126 599.000
33.96154 583.000
33.98182 614.000
34.00210 628.000
34.02238 591.000
34.04266 653.000
34.06294 664.000
34.08322 682.000
34.10350 669.000
34.12378 656.000
34.14406 662.000
34.16434 648.000
34.18462 677.000
34.20490 705.000
34.22518 679.000
34.24546 700.000
34.26574 684.000
34.28602 669.000
34.30630 732.000
34.32658 717.000
34.34686 757.000
34.36714 780.000
34.38742 762.000
34.40770 879.000
34.42798 859.000
34.44826 892.000
34.46854 916.000
34.48882 1008.000
34.50910 1056.000
34.52938 1074.000
34.54966 1160.000
34.56994 1148.000
34.59022 1231.000
34.61050 1169.000
34.63078 1220.000
34.65106 1108.000
34.67134 1043.000
34.69162 989.000
34.71190 1013.000
34.73218 933.000
34.75246 939.000
34.77274 872.000
34.79302 867.000
34.81330 902.000
34.83358 823.000
34.85386 902.000
34.87414 905.000
34.89442 940.000
34.91470 930.000
34.93498 907.000
34.95526 885.000
34.97554 925.000
34.99582 895.000
35.01610 875.000
35.03638 848.000
35.05666 813.000
35.07694 834.000
35.09722 782.000
35.11750 726.000
35.13778 718.000
35.15806 648.000
35.17834 751.000
35.19862 693.000
35.21890 668.000
35.23918 642.000
35.25946 648.000
35.27974 645.000
35.30002 623.000
35.32030 672.000
35.34058 590.000
35.36087 621.000
35.38115 624.000
35.40143 574.000
35.42171 602.000
35.44199 681.000
35.46227 657.000
35.48255 611.000
35.50283 656.000
35.52311 682.000
35.54339 578.000
35.56367 581.000
35.58395 640.000
35.60423 635.000
35.62451 639.000
35.64479 557.000
35.66507 583.000
35.68535 539.000
35.70563 575.000
35.72591 565.000
35.74619 540.000
35.76647 600.000
35.78675 541.000
35.80703 493.000
35.82731 517.000
35.84759 526.000
35.86787 494.000
35.88815 483.000
35.90843 494.000
35.92871 455.000
35.94899 491.000
35.96927 496.000
35.98955 507.000
36.00983 489.000
36.03011 520.000
36.05039 505.000
36.07067 522.000
36.09095 568.000
36.11123 577.000
36.13151 561.000
36.15179 601.000
36.17207 578.000
36.19235 595.000
36.21263 568.000
36.23291 618.000
36.25319 632.000
36.27347 671.000
36.29375 605.000
36.31403 568.000
36.33431 674.000
36.35459 608.000
36.37487 641.000
36.39515 642.000
36.41543 670.000
36.43571 705.000
36.45599 675.000
36.47627 663.000
36.49655 681.000
36.51683 669.000
36.53711 712.000
36.55739 727.000
36.57767 756.000
36.59795 768.000
36.61823 790.000
36.63851 832.000
36.65879 855.000
36.67907 863.000
36.69935 840.000
36.71963 833.000
36.73991 905.000
36.76019 884.000
36.78047 894.000
36.80075 851.000
36.82103 823.000
36.84131 817.000
36.86159 824.000
36.88187 816.000
36.90215 745.000
36.92243 731.000
36.94271 733.000
36.96299 714.000
36.98327 708.000
37.00355 666.000
37.02383 709.000
37.04411 712.000
37.06439 696.000
37.08467 653.000
37.10495 668.000
37.12523 666.000
37.14551 660.000
37.16579 672.000
37.18607 631.000
37.20635 630.000
37.22663 643.000
37.24691 638.000
37.26720 608.000
37.28748 614.000
37.30776 629.000
37.32804 607.000
37.34832 597.000
37.36860 548.000
37.38888 531.000
37.40916 571.000
37.42944 582.000
37.44972 612.000
37.47000 566.000
37.49028 577.000
37.51056 561.000
37.53084 550.000
37.55112 564.000
37.57140 530.000
37.59168 560.000
37.61196 593.000
37.63224 562.000
37.65252 592.000
37.67280 608.000
37.69308 609.000
37.71336 572.000
37.73364 572.000
37.75392 574.000
37.77420 638.000
37.79448 650.000
37.81476 680.000
37.83504 651.000
37.85532 693.000
37.87560 668.000
37.89588 702.000
37.91616 738.000
37.93644 721.000
37.95672 733.000
37.97700 776.000
37.99728 705.000
38.01756 740.000
38.03784 677.000
38.05812 671.000
38.07840 692.000
38.09868 700.000
38.11896 688.000
38.13924 619.000
38.15952 632.000
38.17980 612.000
38.20008 594.000
38.22036 588.000
38.24064 619.000
38.26092 542.000
38.28120 622.000
38.30148 623.000
38.32176 594.000
38.34204 593.000
38.36232 592.000
38.38260 609.000
38.40288 635.000
38.42316 599.000
38.44344 584.000
38.46372 610.000
38.48400 570.000
38.50428 597.000
38.52456 575.000
38.54484 536.000
38.56512 593.000
38.58540 540.000
38.60568 517.000
38.62596 523.000
38.64624 531.000
38.66652 578.000
38.68680 527.000
38.70708 514.000
38.72736 480.000
38.74764 524.000
38.76792 526.000
38.78820 495.000
38.80848 523.000
38.82876 523.000
38.84904 470.000
38.86932 523.000
38.88960 514.000
38.90988 494.000
38.93016 506.000
38.95044 508.000
38.97072 535.000
38.99100 488.000
39.01128 542.000
39.03156 530.000
39.05184 520.000
39.07212 528.000
39.09240 523.000
39.11268 555.000
39.13296 559.000
39.15324 541.000
39.17353 552.000
39.19381 523.000
39.21409 516.000
39.23437 570.000
39.25465 514.000
39.27493 563.000
39.29521 569.000
39.31549 587.000
39.33577 563.000
39.35605 599.000
39.37633 566.000
39.39661 582.000
39.41689 606.000
39.43717 607.000
39.45745 610.000
39.47773 580.000
39.49801 640.000
39.51829 636.000
39.53857 651.000
39.55885 664.000
39.57913 678.000
39.59941 734.000
39.61969 650.000
39.63997 615.000
39.66025 676.000
39.68053 722.000
39.70081 662.000
39.72109 620.000
39.74137 675.000
39.76165 661.000
39.78193 601.000
39.80221 628.000
39.82249 610.000
39.84277 658.000
39.86305 617.000
39.88333 582.000
39.90361 586.000
39.92389 607.000
39.94417 609.000
39.96445 618.000
39.98473 647.000
40.00501 638.000
40.02529 680.000
40.04557 661.000
40.06585 652.000
40.08613 681.000
40.10641 754.000
40.12669 728.000
40.14697 758.000
40.16725 755.000
40.18753 796.000
40.20781 742.000
40.22809 830.000
40.24837 767.000
40.26865 797.000
40.28893 792.000
40.30921 791.000
40.32949 686.000
40.34977 777.000
40.37005 775.000
40.39033 768.000
40.41061 738.000
40.43089 726.000
40.45117 714.000
40.47145 743.000
40.49173 740.000
40.51201 700.000
40.53229 667.000
40.55257 651.000
40.57285 630.000
40.59313 652.000
40.61341 619.000
40.63369 572.000
40.65397 598.000
40.67425 582.000
40.69453 618.000
40.71481 587.000
40.73509 544.000
40.75537 576.000
40.77565 608.000
40.79593 518.000
40.81621 549.000
40.83649 520.000
40.85677 543.000
40.87705 495.000
40.89733 528.000
40.91761 501.000
40.93789 546.000
40.95817 553.000
40.97845 567.000
40.99873 549.000
41.01901 543.000
41.03929 531.000
41.05957 547.000
41.07986 539.000
41.10014 568.000
41.12042 540.000
41.14070 569.000
41.16098 519.000
41.18126 610.000
41.20154 587.000
41.22182 617.000
41.24210 595.000
41.26238 616.000
41.28266 601.000
41.30294 665.000
41.32322 648.000
41.34350 620.000
41.36378 677.000
41.38406 665.000
41.40434 696.000
41.42462 734.000
41.44490 693.000
41.46518 684.000
41.48546 682.000
41.50574 719.000
41.52602 726.000
41.54630 693.000
41.56658 659.000
41.58686 697.000
41.60714 667.000
41.62742 733.000
41.64770 785.000
41.66798 732.000
41.68826 766.000
41.70854 780.000
41.72882 786.000
41.74910 718.000
41.76938 742.000
41.78966 771.000
41.80994 732.000
41.83022 733.000
41.85050 662.000
41.87078 641.000
41.89106 626.000
41.91134 621.000
41.93162 603.000
41.95190 596.000
41.97218 557.000
41.99246 549.000
42.01274 515.000
42.03302 553.000
42.05330 552.000
42.07358 530.000
42.09386 506.000
42.11414 516.000
42.13442 513.000
42.15470 502.000
42.17498 478.000
42.19526 483.000
42.21554 453.000
42.23582 498.000
42.25610 491.000
42.27638 500.000
42.29666 481.000
42.31694 473.000
42.33722 488.000
42.35750 505.000
42.37778 482.000
42.39806 498.000
42.41834 460.000
42.43862 474.000
42.45890 530.000
42.47918 495.000
42.49946 515.000
42.51974 482.000
42.54002 461.000
42.56030 446.000
42.58058 482.000
42.60086 483.000
42.62114 489.000
42.64142 433.000
42.66170 488.000
42.68198 458.000
42.70226 449.000
42.72254 474.000
42.74282 480.000
42.76310 478.000
42.78338 435.000
42.80366 472.000
42.82394 444.000
42.84422 472.000
42.86450 480.000
42.88478 499.000
42.90506 526.000
42.92534 489.000
42.94562 484.000
42.96590 489.000
42.98619 497.000
43.00647 529.000
43.02675 563.000
43.04703 563.000
43.06731 470.000
43.08759 512.000
43.10787 573.000
43.12815 566.000
43.14843 542.000
43.16871 558.000
43.18899 583.000
43.20927 582.000
43.22955 635.000
43.24983 616.000
43.27011 588.000
43.29039 674.000
43.31067 671.000
43.33095 642.000
43.35123 675.000
43.37151 652.000
43.39179 618.000
43.41207 622.000
43.43235 661.000
43.45263 604.000
43.47291 657.000
43.49319 637.000
43.51347 651.000
43.53375 619.000
43.55403 643.000
43.57431 665.000
43.59459 714.000
43.61487 692.000
43.63515 692.000
43.65543 672.000
43.67571 671.000
43.69599 660.000
43.71627 669.000
43.73655 695.000
43.75683 637.000
43.77711 671.000
43.79739 655.000
43.81767 598.000
43.83795 670.000
43.85823 642.000
43.87851 681.000
43.89879 678.000
43.91907 672.000
43.93935 694.000
43.95963 712.000
43.97991 696.000
44.00019 681.000
44.02047 698.000
44.04075 717.000
44.06103 650.000
44.08131 703.000
44.10159 708.000
44.12187 662.000
44.14215 650.000
44.16243 632.000
44.18271 617.000
44.20299 651.000
44.22327 574.000
44.24355 566.000
44.26383 577.000
44.28411 570.000
44.30439 535.000
44.32467 547.000
44.34495 599.000
44.36523 524.000
44.38551 551.000
44.40579 488.000
44.42607 475.000
44.44635 527.000
44.46663 537.000
44.48691 510.000
44.50719 537.000
44.52747 531.000
44.54775 497.000
44.56803 514.000
44.58831 541.000
44.60859 531.000
44.62887 502.000
44.64915 506.000
44.66943 534.000
44.68971 517.000
44.70999 532.000
44.73027 595.000
44.75055 562.000
44.77083 539.000
44.79111 548.000
44.81139 554.000
44.83167 519.000
44.85195 579.000
44.87223 569.000
44.89251 554.000
44.91280 563.000
44.93308 521.000
44.95336 533.000
44.97364 586.000
44.99392 531.000
45.01420 551.000
45.03448 512.000
45.05476 550.000
45.07504 608.000
45.09532 521.000
45.11560 567.000
45.13588 503.000
45.15616 508.000
45.17644 534.000
45.19672 537.000
45.21700 510.000
45.23728 534.000
45.25756 480.000
45.27784 471.000
45.29812 511.000
45.31840 567.000
45.33868 493.000
45.35896 508.000
45.37924 529.000
45.39952 507.000
45.41980 524.000
45.44008 511.000
45.46036 529.000
45.48064 557.000
45.50092 505.000
45.52120 507.000
45.54148 525.000
45.56176 563.000
45.58204 575.000
45.60232 553.000
45.62260 518.000
45.64288 572.000
45.66316 518.000
45.68344 526.000
45.70372 578.000
45.72400 549.000
45.74428 553.000
45.76456 569.000
45.78484 588.000
45.80512 530.000
45.82540 531.000
45.84568 558.000
45.86596 537.000
45.88624 581.000
45.90652 536.000
45.92680 545.000
45.94708 545.000
45.96736 524.000
45.98764 543.000
46.00792 533.000
46.02820 499.000
46.04848 487.000
46.06876 504.000
46.08904 507.000
46.10932 530.000
46.12960 496.000
46.14988 545.000
46.17016 505.000
46.19044 523.000
46.21072 513.000
46.23100 530.000
46.25128 560.000
46.27156 489.000
46.29184 555.000
46.31212 555.000
46.33240 570.000
46.35268 533.000
46.37296 531.000
46.39324 596.000
46.41352 530.000
46.43380 562.000
46.45408 567.000
46.47436 573.000
46.49464 495.000
46.51492 552.000
46.53520 568.000
46.55548 515.000
46.57576 559.000
46.59604 574.000
46.61632 528.000
46.63660 605.000
46.65688 529.000
46.67716 513.000
46.69744 550.000
46.71772 573.000
46.73800 500.000
46.75828 523.000
46.77856 587.000
46.79884 515.000
46.81913 494.000
46.83941 539.000
46.85969 534.000
46.87997 545.000
46.90025 552.000
46.92053 527.000
46.94081 503.000
46.96109 522.000
46.98137 511.000
47.00165 504.000
47.02193 522.000
47.04221 511.000
47.06249 529.000
47.08277 559.000
47.10305 474.000
47.12333 474.000
47.14361 528.000
47.16389 551.000
47.18417 545.000
47.20445 549.000
47.22473 591.000
47.24501 586.000
47.26529 574.000
47.28557 630.000
47.30585 627.000
47.32613 629.000
47.34641 621.000
47.36669 613.000
47.38697 614.000
47.40725 574.000
47.42753 607.000
47.44781 560.000
47.46809 566.000
47.48837 619.000
47.50865 584.000
47.52893 601.000
47.54921 567.000
47.56949 572.000
47.58977 595.000
47.61005 582.000
47.63033 545.000
47.65061 551.000
47.67089 547.000
47.69117 522.000
47.71145 552.000
47.73173 561.000
47.75201 521.000
47.77229 534.000
47.79257 542.000
47.81285 555.000
47.83313 558.000
47.85341 506.000
47.87369 533.000
47.89397 519.000
47.91425 540.000
47.93453 521.000
47.95481 539.000
47.97509 500.000
47.99537 507.000
48.01565 493.000
48.03593 510.000
48.05621 458.000
48.07649 530.000
48.09677 442.000
48.11705 444.000
48.13733 455.000
48.15761 453.000
48.17789 467.000
48.19817 475.000
48.21845 499.000
48.23873 530.000
48.25901 478.000
48.27929 460.000
48.29957 461.000
48.31985 459.000
48.34013 447.000
48.36041 458.000
48.38069 440.000
48.40097 441.000
48.42125 427.000
48.44153 477.000
48.46181 469.000
48.48209 440.000
48.50237 461.000
48.52265 455.000
48.54293 489.000
48.56321 478.000
48.58349 450.000
48.60377 481.000
48.62405 459.000
48.64433 419.000
48.66461 436.000
48.68489 448.000
48.70517 452.000
48.72546 432.000
48.74574 437.000
48.76602 460.000
48.78630 416.000
48.80658 431.000
48.82686 396.000
48.84714 423.000
48.86742 418.000
48.88770 459.000
48.90798 438.000
48.92826 429.000
48.94854 398.000
48.96882 433.000
48.98910 387.000
49.00938 441.000
49.02966 416.000
49.04994 441.000
49.07022 415.000
49.09050 425.000
49.11078 430.000
49.13106 473.000
49.15134 459.000
49.17162 468.000
49.19190 447.000
49.21218 461.000
49.23246 462.000
49.25274 436.000
49.27302 480.000
49.29330 443.000
49.31358 464.000
49.33386 422.000
49.35414 459.000
49.37442 436.000
49.39470 433.000
49.41498 438.000
49.43526 438.000
49.45554 455.000
49.47582 441.000
49.49610 458.000
49.51638 457.000
49.53666 433.000
49.55694 447.000
49.57722 436.000
49.59750 434.000
49.61778 453.000
49.63806 451.000
49.65834 475.000
49.67862 438.000
49.69890 524.000
49.71918 463.000
49.73946 484.000
49.75974 498.000
49.78002 478.000
49.80030 461.000
49.82058 471.000
49.84086 467.000
49.86114 457.000
49.88142 468.000
49.90170 460.000
49.92198 458.000
49.94226 471.000
49.96254 433.000
49.98282 471.000
50.00310 495.000
50.02338 427.000
50.04366 456.000
50.06394 439.000
50.08422 485.000
50.10450 440.000
50.12478 504.000
50.14506 513.000
50.16534 515.000
50.18562 515.000
50.20590 488.000
50.22618 492.000
50.24646 556.000
50.26674 519.000
50.28702 538.000
50.30730 533.000
50.32758 510.000
50.34786 560.000
50.36814 537.000
50.38842 537.000
50.40870 532.000
50.42898 558.000
50.44926 596.000
50.46954 525.000
50.48982 523.000
50.51010 554.000
50.53038 508.000
50.55066 545.000
50.57094 511.000
50.59122 527.000
50.61150 484.000
50.63179 483.000
50.65207 473.000
50.67235 465.000
50.69263 491.000
50.71291 494.000
50.73319 498.000
50.75347 477.000
50.77375 452.000
50.79403 506.000
50.81431 463.000
50.83459 452.000
50.85487 440.000
50.87515 440.000
50.89543 452.000
50.91571 439.000
50.93599 478.000
50.95627 446.000
50.97655 476.000
50.99683 451.000
