5.00155 869.000
5.02183 931.000
5.04211 792.000
5.06239 833.000
5.08267 871.000
5.10295 824.000
5.12323 774.000
5.14351 817.000
5.16379 816.000
5.18407 757.000
5.20435 789.000
5.22463 801.000
5.24491 757.000
5.26519 761.000
5.28547 737.000
5.30575 704.000
5.32603 728.000
5.34631 787.000
5.36659 719.000
5.38687 772.000
5.40715 685.000
5.42743 769.000
5.44771 704.000
5.46799 703.000
5.48827 658.000
5.50855 659.000
5.52883 670.000
5.54911 663.000
5.56939 663.000
5.58967 624.000
5.60995 635.000
5.63023 699.000
5.65051 646.000
5.67079 619.000
5.69107 660.000
5.71135 641.000
5.73163 642.000
5.75191 627.000
5.77219 610.000
5.79247 573.000
5.81275 604.000
5.83303 565.000
5.85331 571.000
5.87359 602.000
5.89387 546.000
5.91415 598.000
5.93443 587.000
5.95471 575.000
5.97499 554.000
5.99527 543.000
6.01555 588.000
6.03583 558.000
6.05611 538.000
6.07639 560.000
6.09667 615.000
6.11695 561.000
6.13723 527.000
6.15751 597.000
6.17779 553.000
6.19807 536.000
6.21835 555.000
6.23863 547.000
6.25891 555.000
6.27919 559.000
6.29947 573.000
6.31975 563.000
6.34003 622.000
6.36031 547.000
6.38059 610.000
6.40087 610.000
6.42115 606.000
6.44143 617.000
6.46171 649.000
6.48199 605.000
6.50227 743.000
6.52255 787.000
6.54283 831.000
6.56311 928.000
6.58339 978.000
6.60367 1086.000
6.62395 1252.000
6.64423 1424.000
6.66451 1762.000
6.68479 2153.000
6.70507 2596.000
6.72536 3189.000
6.74564 3812.000
6.76592 4577.000
6.78620 5183.000
6.80648 5770.000
6.82676 6099.000
6.84704 6206.000
6.86732 5900.000
6.88760 5227.000
6.90788 4479.000
6.92816 3467.000
6.94844 2536.000
6.96872 1951.000
6.98900 1521.000
7.00928 1161.000
7.02956 1005.000
7.04984 823.000
7.07012 749.000
7.09040 745.000
7.11068 649.000
7.13096 631.000
7.15124 647.000
7.17152 586.000
7.19180 571.000
7.21208 584.000
7.23236 521.000
7.25264 491.000
7.27292 520.000
7.29320 517.000
7.31348 525.000
7.33376 522.000
7.35404 473.000
7.37432 482.000
7.39460 458.000
7.41488 496.000
7.43516 462.000
7.45544 484.000
7.47572 495.000
7.49600 480.000
7.51628 467.000
7.53656 427.000
7.55684 462.000
7.57712 475.000
7.59740 502.000
7.61768 438.000
7.63796 441.000
7.65824 476.000
7.67852 505.000
7.69880 471.000
7.71908 455.000
7.73936 481.000
7.75964 507.000
7.77992 495.000
7.80020 454.000
7.82048 470.000
7.84076 472.000
7.86104 446.000
7.88132 513.000
7.90160 488.000
7.92188 488.000
7.94216 494.000
7.96244 530.000
7.98272 529.000
8.00300 569.000
8.02328 557.000
8.04356 588.000
8.06384 586.000
8.08412 684.000
8.10440 742.000
8.12468 783.000
8.14496 921.000
8.16524 1054.000
8.18552 1193.000
8.20580 1394.000
8.22608 1731.000
8.24636 1947.000
8.26664 2358.000
8.28692 2761.000
8.30720 3591.000
8.32748 4357.000
8.34776 5164.000
8.36804 5816.000
8.38832 6404.000
8.40860 6359.000
8.42888 5968.000
8.44916 5087.000
8.46944 4199.000
8.48972 3104.000
8.51000 2248.000
8.53028 1892.000
8.55056 1464.000
8.57084 1286.000
8.59112 1093.000
8.61140 1057.000
8.63168 961.000
8.65197 955.000
8.67225 864.000
8.69253 851.000
8.71281 785.000
8.73309 717.000
8.75337 640.000
8.77365 651.000
8.79393 596.000
8.81421 610.000
8.83449 571.000
8.85477 500.000
8.87505 483.000
8.89533 504.000
8.91561 527.000
8.93589 523.000
8.95617 496.000
8.97645 496.000
8.99673 492.000
9.01701 428.000
9.03729 455.000
9.05757 504.000
9.07785 492.000
9.09813 468.000
9.11841 438.000
9.13869 440.000
9.15897 448.000
9.17925 423.000
9.19953 434.000
9.21981 438.000
9.24009 451.000
9.26037 422.000
9.28065 439.000
9.30093 469.000
9.32121 449.000
9.34149 463.000
9.36177 463.000
9.38205 472.000
9.40233 506.000
9.42261 505.000
9.44289 521.000
9.46317 514.000
9.48345 540.000
9.50373 520.000
9.52401 486.000
9.54429 502.000
9.56457 479.000
9.58485 505.000
9.60513 446.000
9.62541 452.000
9.64569 475.000
9.66597 448.000
9.68625 412.000
9.70653 477.000
9.72681 427.000
9.74709 465.000
9.76737 477.000
9.78765 510.000
9.80793 514.000
9.82821 524.000
9.84849 542.000
9.86877 573.000
9.88905 579.000
9.90933 573.000
9.92961 508.000
9.94989 531.000
9.97017 478.000
9.99045 511.000
10.01073 464.000
10.03101 432.000
10.05129 474.000
10.07157 449.000
10.09185 468.000
10.11213 455.000
10.13241 440.000
10.15269 435.000
10.17297 450.000
10.19325 447.000
10.21353 449.000
10.23381 374.000
10.25409 469.000
10.27437 445.000
10.29465 434.000
10.31493 480.000
10.33521 457.000
10.35549 483.000
10.37577 499.000
10.39605 496.000
10.41633 507.000
10.43661 600.000
10.45689 654.000
10.47717 734.000
10.49745 929.000
10.51773 985.000
10.53801 1145.000
10.55830 1181.000
10.57858 1246.000
10.59886 1265.000
10.61914 1105.000
10.63942 1077.000
10.65970 821.000
10.67998 741.000
10.70026 637.000
10.72054 573.000
10.74082 530.000
10.76110 538.000
10.78138 554.000
10.80166 546.000
10.82194 494.000
10.84222 499.000
10.86250 473.000
10.88278 477.000
10.90306 500.000
10.92334 513.000
10.94362 462.000
10.96390 457.000
10.98418 470.000
11.00446 480.000
11.02474 417.000
11.04502 448.000
11.06530 433.000
11.08558 428.000
11.10586 373.000
11.12614 382.000
11.14642 410.000
11.16670 420.000
11.18698 362.000
11.20726 392.000
11.22754 374.000
11.24782 396.000
11.26810 376.000
11.28838 361.000
11.30866 383.000
11.32894 376.000
11.34922 431.000
11.36950 421.000
11.38978 356.000
11.41006 370.000
11.43034 441.000
11.45062 390.000
11.47090 374.000
11.49118 403.000
11.51146 354.000
11.53174 401.000
11.55202 420.000
11.57230 371.000
11.59258 405.000
11.61286 415.000
11.63314 403.000
11.65342 353.000
11.67370 367.000
11.69398 391.000
11.71426 386.000
11.73454 388.000
11.75482 416.000
11.77510 398.000
11.79538 364.000
11.81566 400.000
11.83594 355.000
11.85622 398.000
11.87650 364.000
11.89678 387.000
11.91706 360.000
11.93734 393.000
11.95762 413.000
11.97790 372.000
11.99818 358.000
12.01846 381.000
12.03874 410.000
12.05902 393.000
12.07930 357.000
12.09958 380.000
12.11986 416.000
12.14014 369.000
12.16042 370.000
12.18070 402.000
12.20098 395.000
12.22126 395.000
12.24154 411.000
12.26182 392.000
12.28210 414.000
12.30238 335.000
12.32266 392.000
12.34294 410.000
12.36322 394.000
12.38350 419.000
12.40378 409.000
12.42406 401.000
12.44434 367.000
12.46463 389.000
12.48491 405.000
12.50519 348.000
12.52547 414.000
12.54575 385.000
12.56603 377.000
12.58631 405.000
12.60659 376.000
12.62687 395.000
12.64715 369.000
12.66743 374.000
12.68771 369.000
12.70799 387.000
12.72827 405.000
12.74855 383.000
12.76883 418.000
12.78911 409.000
12.80939 391.000
12.82967 345.000
12.84995 426.000
12.87023 427.000
12.89051 381.000
12.91079 390.000
12.93107 464.000
12.95135 472.000
12.97163 473.000
12.99191 425.000
13.01219 466.000
13.03247 450.000
13.05275 505.000
13.07303 540.000
13.09331 578.000
13.11359 579.000
13.13387 711.000
13.15415 779.000
13.17443 880.000
13.19471 896.000
13.21499 924.000
13.23527 993.000
13.25555 946.000
13.27583 975.000
13.29611 1011.000
13.31639 1022.000
13.33667 1057.000
13.35695 1133.000
13.37723 1189.000
13.39751 1170.000
13.41779 1169.000
13.43807 1160.000
13.45835 1135.000
13.47863 1251.000
13.49891 1350.000
13.51919 1619.000
13.53947 1722.000
13.55975 1716.000
13.58003 1888.000
13.60031 1709.000
13.62059 1624.000
13.64087 1487.000
13.66115 1304.000
13.68143 1301.000
13.70171 1201.000
13.72199 982.000
13.74227 898.000
13.76255 813.000
13.78283 731.000
13.80311 686.000
13.82339 595.000
13.84367 605.000
13.86395 553.000
13.88423 528.000
13.90451 515.000
13.92479 503.000
13.94507 480.000
13.96535 488.000
13.98563 450.000
14.00591 447.000
14.02619 468.000
14.04647 456.000
14.06675 447.000
14.08703 406.000
14.10731 444.000
14.12759 456.000
14.14787 421.000
14.16815 455.000
14.18843 446.000
14.20871 474.000
14.22899 445.000
14.24927 474.000
14.26955 446.000
14.28983 468.000
14.31011 455.000
14.33039 491.000
14.35067 505.000
14.37096 521.000
14.39124 501.000
14.41152 556.000
14.43180 540.000
14.45208 616.000
14.47236 626.000
14.49264 674.000
14.51292 680.000
14.53320 803.000
14.55348 933.000
14.57376 981.000
14.59404 1291.000
14.61432 1464.000
14.63460 1749.000
14.65488 2059.000
14.67516 2279.000
14.69544 2472.000
14.71572 2460.000
14.73600 2290.000
14.75628 1945.000
14.77656 1693.000
14.79684 1453.000
14.81712 1245.000
14.83740 1154.000
14.85768 1288.000
14.87796 1321.000
14.89824 1433.000
14.91852 1532.000
14.93880 1515.000
14.95908 1633.000
14.97936 1545.000
14.99964 1304.000
15.01992 1134.000
15.04020 932.000
15.06048 877.000
15.08076 718.000
15.10104 612.000
15.12132 638.000
15.14160 535.000
15.16188 543.000
15.18216 522.000
15.20244 497.000
15.22272 514.000
15.24300 523.000
15.26328 454.000
15.28356 505.000
15.30384 483.000
15.32412 459.000
15.34440 472.000
15.36468 471.000
15.38496 483.000
15.40524 494.000
15.42552 494.000
15.44580 465.000
15.46608 498.000
15.48636 509.000
15.50664 529.000
15.52692 523.000
15.54720 508.000
15.56748 513.000
15.58776 521.000
15.60804 511.000
15.62832 492.000
15.64860 464.000
15.66888 523.000
15.68916 503.000
15.70944 503.000
15.72972 551.000
15.75000 518.000
15.77028 553.000
15.79056 484.000
15.81084 534.000
15.83112 530.000
15.85140 528.000
15.87168 536.000
15.89196 573.000
15.91224 542.000
15.93252 608.000
15.95280 644.000
15.97308 577.000
15.99336 621.000
16.01364 700.000
16.03392 725.000
16.05420 742.000
16.07448 789.000
16.09476 800.000
16.11504 789.000
16.13532 908.000
16.15560 894.000
16.17588 908.000
16.19616 994.000
16.21644 997.000
16.23672 1267.000
16.25700 1461.000
16.27729 1739.000
16.29757 1912.000
16.31785 2308.000
16.33813 2720.000
16.35841 3109.000
16.37869 3447.000
16.39897 3590.000
16.41925 3528.000
16.43953 3444.000
16.45981 3223.000
16.48009 2798.000
16.50037 2450.000
16.52065 2275.000
16.54093 2050.000
16.56121 1876.000
16.58149 1976.000
16.60177 1988.000
16.62205 2053.000
16.64233 2218.000
16.66261 2259.000
16.68289 2371.000
16.70317 2399.000
16.72345 2563.000
16.74373 2600.000
16.76401 2804.000
16.78429 2956.000
16.80457 3300.000
16.82485 3138.000
16.84513 3154.000
16.86541 3083.000
16.88569 2654.000
16.90597 2393.000
16.92625 2086.000
16.94653 2181.000
16.96681 2081.000
16.98709 2365.000
17.00737 2654.000
17.02765 2940.000
17.04793 3527.000
17.06821 3848.000
17.08849 4608.000
17.10877 4809.000
17.12905 4948.000
17.14933 4919.000
17.16961 4776.000
17.18989 4249.000
17.21017 3660.000
17.23045 3076.000
17.25073 2585.000
17.27101 2233.000
17.29129 1947.000
17.31157 1661.000
17.33185 1456.000
17.35213 1377.000
17.37241 1222.000
17.39269 1084.000
17.41297 1035.000
17.43325 982.000
17.45353 937.000
17.47381 908.000
17.49409 857.000
17.51437 871.000
17.53465 837.000
17.55493 944.000
17.57521 877.000
17.59549 888.000
17.61577 866.000
17.63605 949.000
17.65633 927.000
17.67661 1064.000
17.69689 1023.000
17.71717 1118.000
17.73745 1072.000
17.75773 1285.000
17.77801 1335.000
17.79829 1401.000
17.81857 1378.000
17.83885 1428.000
17.85913 1509.000
17.87941 1620.000
17.89969 1727.000
17.91997 2031.000
17.94025 2240.000
17.96053 2692.000
17.98081 3076.000
18.00109 3761.000
18.02137 4353.000
18.04165 5065.000
18.06193 5940.000
18.08221 6499.000
18.10249 7173.000
18.12277 7303.000
18.14305 7118.000
18.16333 6885.000
18.18362 6234.000
18.20390 5471.000
18.22418 4460.000
18.24446 3823.000
18.26474 3163.000
18.28502 2735.000
18.30530 2295.000
18.32558 1967.000
18.34586 1848.000
18.36614 1822.000
18.38642 1755.000
18.40670 1677.000
18.42698 1543.000
18.44726 1583.000
18.46754 1527.000
18.48782 1479.000
18.50810 1483.000
18.52838 1633.000
18.54866 1695.000
18.56894 1859.000
18.58922 2073.000
18.60950 2557.000
18.62978 2619.000
18.65006 2973.000
18.67034 3216.000
18.69062 3499.000
18.71090 3663.000
18.73118 3796.000
18.75146 3652.000
18.77174 3432.000
18.79202 3235.000
18.81230 2860.000
18.83258 2480.000
18.85286 2259.000
18.87314 2161.000
18.89342 1920.000
18.91370 1771.000
18.93398 1708.000
18.95426 1680.000
18.97454 1634.000
18.99482 1743.000
19.01510 1734.000
19.03538 1783.000
19.05566 1855.000
19.07594 1834.000
19.09622 1779.000
19.11650 1708.000
19.13678 1498.000
19.15706 1358.000
19.17734 1263.000
19.19762 1239.000
19.21790 1175.000
19.23818 1162.000
19.25846 1247.000
19.27874 1261.000
19.29902 1304.000
19.31930 1391.000
19.33958 1449.000
19.35986 1618.000
19.38014 1801.000
19.40042 2052.000
19.42070 2364.000
19.44098 2697.000
19.46126 3005.000
19.48154 3522.000
19.50182 3962.000
19.52210 4253.000
19.54238 4391.000
19.56266 4327.000
19.58294 4088.000
19.60322 3847.000
19.62350 3443.000
19.64378 2954.000
19.66406 2618.000
19.68434 2414.000
19.70462 2206.000
19.72490 2171.000
19.74518 2288.000
19.76546 2221.000
19.78574 2338.000
19.80602 2542.000
19.82630 2768.000
19.84658 2897.000
19.86686 3434.000
19.88714 3808.000
19.90742 3916.000
19.92770 4392.000
19.94798 4511.000
19.96826 4472.000
19.98854 4433.000
20.00882 3960.000
20.02910 3675.000
20.04938 3291.000
20.06966 3111.000
20.08995 2828.000
20.11023 2771.000
20.13051 2715.000
20.15079 2764.000
20.17107 2900.000
20.19135 3136.000
20.21163 3163.000
20.23191 3288.000
20.25219 3472.000
20.27247 3461.000
20.29275 3677.000
20.31303 4086.000
20.33331 4267.000
20.35359 4697.000
20.37387 4837.000
20.39415 4618.000
20.41443 4245.000
20.43471 3850.000
20.45499 3055.000
20.47527 2584.000
20.49555 2123.000
20.51583 1835.000
20.53611 1624.000
20.55639 1584.000
20.57667 1498.000
20.59695 1494.000
20.61723 1401.000
20.63751 1301.000
20.65779 1284.000
20.67807 1213.000
20.69835 1199.000
20.71863 1130.000
20.73891 1078.000
20.75919 1065.000
20.77947 968.000
20.79975 1038.000
20.82003 980.000
20.84031 1047.000
20.86059 1033.000
20.88087 1106.000
20.90115 1056.000
20.92143 1023.000
20.94171 1135.000
20.96199 1145.000
20.98227 1193.000
21.00255 1162.000
21.02283 1226.000
21.04311 1410.000
21.06339 1442.000
21.08367 1502.000
21.10395 1628.000
21.12423 1728.000
21.14451 1804.000
21.16479 2070.000
21.18507 2188.000
21.20535 2451.000
21.22563 2686.000
21.24591 2939.000
21.26619 3300.000
21.28647 3707.000
21.30675 4230.000
21.32703 4621.000
21.34731 5429.000
21.36759 6071.000
21.38787 6976.000
21.40815 7714.000
21.42843 8487.000
21.44871 9035.000
21.46899 9410.000
21.48927 9855.000
21.50955 10457.000
21.52983 10525.000
21.55011 10727.000
21.57039 10961.000
21.59067 10921.000
21.61095 10800.000
21.63123 10515.000
21.65151 10057.000
21.67179 9443.000
21.69207 8671.000
21.71235 7915.000
21.73263 7012.000
21.75291 6154.000
21.77319 5253.000
21.79347 4341.000
21.81375 3650.000
21.83403 3038.000
21.85431 2551.000
21.87459 2299.000
21.89487 1965.000
21.91515 1743.000
21.93543 1517.000
21.95571 1447.000
21.97599 1428.000
21.99628 1325.000
22.01656 1170.000
22.03684 1208.000
22.05712 1138.000
22.07740 1155.000
22.09768 1102.000
22.11796 1014.000
22.13824 1052.000
22.15852 1038.000
22.17880 991.000
22.19908 1008.000
22.21936 1050.000
22.23964 1029.000
22.25992 1107.000
22.28020 1082.000
22.30048 1133.000
22.32076 1161.000
22.34104 1179.000
22.36132 1136.000
22.38160 1248.000
22.40188 1226.000
22.42216 1329.000
22.44244 1361.000
22.46272 1419.000
22.48300 1595.000
22.50328 1579.000
22.52356 1638.000
22.54384 1577.000
22.56412 1621.000
22.58440 1524.000
22.60468 1486.000
22.62496 1383.000
22.64524 1350.000
22.66552 1299.000
22.68580 1208.000
22.70608 1229.000
22.72636 1129.000
22.74664 1262.000
22.76692 1342.000
22.78720 1272.000
22.80748 1322.000
22.82776 1401.000
22.84804 1403.000
22.86832 1527.000
22.88860 1525.000
22.90888 1592.000
22.92916 1629.000
22.94944 1615.000
22.96972 1573.000
22.99000 1608.000
23.01028 1637.000
23.03056 1552.000
23.05084 1495.000
23.07112 1414.000
23.09140 1450.000
23.11168 1293.000
23.13196 1232.000
23.15224 1162.000
23.17252 1106.000
23.19280 1096.000
23.21308 1082.000
23.23336 1180.000
23.25364 1113.000
23.27392 1254.000
23.29420 1306.000
23.31448 1390.000
23.33476 1472.000
23.35504 1702.000
23.37532 1775.000
23.39560 1980.000
23.41588 2177.000
23.43616 2394.000
23.45644 2661.000
23.47672 2844.000
23.49700 2992.000
23.51728 3369.000
23.53756 3377.000
23.55784 3410.000
23.57812 3586.000
23.59840 3434.000
23.61868 3209.000
23.63896 2982.000
23.65924 2805.000
23.67952 2426.000
23.69980 2308.000
23.72008 2135.000
23.74036 2012.000
23.76064 1947.000
23.78092 1740.000
23.80120 1631.000
23.82148 1700.000
23.84176 1607.000
23.86204 1577.000
23.88232 1432.000
23.90261 1375.000
23.92289 1318.000
23.94317 1258.000
23.96345 1249.000
23.98373 1148.000
24.00401 1114.000
24.02429 1060.000
24.04457 1038.000
24.06485 1011.000
24.08513 1045.000
24.10541 987.000
24.12569 1009.000
24.14597 1023.000
24.16625 1039.000
24.18653 1069.000
24.20681 1035.000
24.22709 1222.000
24.24737 1258.000
24.26765 1355.000
24.28793 1480.000
24.30821 1558.000
24.32849 1738.000
24.34877 1891.000
24.36905 2050.000
24.38933 2297.000
24.40961 2371.000
24.42989 2474.000
24.45017 2472.000
24.47045 2234.000
24.49073 2035.000
24.51101 1927.000
24.53129 1659.000
24.55157 1522.000
24.57185 1328.000
24.59213 1202.000
24.61241 1201.000
24.63269 1108.000
24.65297 1125.000
24.67325 1146.000
24.69353 1177.000
24.71381 1213.000
24.73409 1309.000
24.75437 1343.000
24.77465 1340.000
24.79493 1363.000
24.81521 1397.000
24.83549 1249.000
24.85577 1195.000
24.87605 1128.000
24.89633 1074.000
24.91661 1016.000
24.93689 988.000
24.95717 998.000
24.97745 1007.000
24.99773 1045.000
25.01801 1003.000
25.03829 1073.000
25.05857 1210.000
25.07885 1233.000
25.09913 1348.000
25.11941 1430.000
25.13969 1605.000
25.15997 1743.000
25.18025 1829.000
25.20053 1731.000
25.22081 1868.000
25.24109 1979.000
25.26137 1918.000
25.28165 1921.000
25.30193 1903.000
25.32221 1783.000
25.34249 1735.000
25.36277 1712.000
25.38305 1557.000
25.40333 1613.000
25.42361 1460.000
25.44389 1572.000
25.46417 1512.000
25.48445 1541.000
25.50473 1455.000
25.52501 1367.000
25.54529 1407.000
25.56557 1301.000
25.58585 1205.000
25.60613 1171.000
25.62641 1017.000
25.64669 1001.000
25.66697 977.000
25.68725 939.000
25.70753 990.000
25.72781 907.000
25.74809 905.000
25.76837 918.000
25.78865 924.000
25.80893 994.000
25.82922 972.000
25.84950 1037.000
25.86978 1055.000
25.89006 1190.000
25.91034 1168.000
25.93062 1264.000
25.95090 1351.000
25.97118 1426.000
25.99146 1498.000
26.01174 1726.000
26.03202 1825.000
26.05230 1782.000
26.07258 1939.000
26.09286 1871.000
26.11314 1889.000
26.13342 1859.000
26.15370 1726.000
26.17398 1652.000
26.19426 1630.000
26.21454 1571.000
26.23482 1409.000
26.25510 1421.000
26.27538 1273.000
26.29566 1230.000
26.31594 1242.000
26.33622 1298.000
26.35650 1233.000
26.37678 1283.000
26.39706 1335.000
26.41734 1312.000
26.43762 1393.000
26.45790 1410.000
26.47818 1366.000
26.49846 1504.000
26.51874 1632.000
26.53902 1580.000
26.55930 1727.000
26.57958 1619.000
26.59986 1625.000
26.62014 1650.000
26.64042 1708.000
26.66070 1631.000
26.68098 1603.000
26.70126 1683.000
26.72154 1544.000
26.74182 1485.000
26.76210 1455.000
26.78238 1346.000
26.80266 1408.000
26.82294 1431.000
26.84322 1470.000
26.86350 1483.000
26.88378 1557.000
26.90406 1660.000
26.92434 1653.000
26.94462 1816.000
26.96490 1762.000
26.98518 1860.000
27.00546 1907.000
27.02574 1751.000
27.04602 1832.000
27.06630 1764.000
27.08658 1697.000
27.10686 1695.000
27.12714 1660.000
27.14742 1530.000
27.16770 1518.000
27.18798 1525.000
27.20826 1348.000
27.22854 1292.000
27.24882 1364.000
27.26910 1310.000
27.28938 1263.000
27.30966 1293.000
27.32994 1226.000
27.35022 1263.000
27.37050 1353.000
27.39078 1243.000
27.41106 1349.000
27.43134 1385.000
27.45162 1383.000
27.47190 1362.000
27.49218 1401.000
27.51246 1283.000
27.53274 1409.000
27.55302 1358.000
27.57330 1252.000
27.59358 1216.000
27.61386 1084.000
27.63414 962.000
27.65442 913.000
27.67470 937.000
27.69498 798.000
27.71526 755.000
27.73555 779.000
27.75583 682.000
27.77611 693.000
27.79639 685.000
27.81667 615.000
27.83695 637.000
27.85723 605.000
27.87751 605.000
27.89779 568.000
27.91807 608.000
27.93835 584.000
27.95863 592.000
27.97891 610.000
27.99919 628.000
28.01947 573.000
28.03975 590.000
28.06003 627.000
28.08031 629.000
28.10059 595.000
28.12087 564.000
28.14115 654.000
28.16143 686.000
28.18171 689.000
28.20199 689.000
28.22227 672.000
28.24255 754.000
28.26283 808.000
28.28311 821.000
28.30339 823.000
28.32367 898.000
28.34395 885.000
28.36423 991.000
28.38451 984.000
28.40479 1102.000
28.42507 1112.000
28.44535 1116.000
28.46563 1145.000
28.48591 1205.000
28.50619 1223.000
28.52647 1268.000
28.54675 1181.000
28.56703 1260.000
28.58731 1328.000
28.60759 1225.000
28.62787 1272.000
28.64815 1206.000
28.66843 1177.000
28.68871 1137.000
28.70899 1036.000
28.72927 1006.000
28.74955 905.000
28.76983 956.000
28.79011 913.000
28.81039 869.000
28.83067 938.000
28.85095 831.000
28.87123 891.000
28.89151 924.000
28.91179 859.000
28.93207 947.000
28.95235 930.000
28.97263 1041.000
28.99291 987.000
29.01319 1059.000
29.03347 1045.000
29.05375 1116.000
29.07403 1204.000
29.09431 1163.000
29.11459 1098.000
29.13487 1150.000
29.15515 1145.000
29.17543 1147.000
29.19571 1049.000
29.21599 989.000
29.23627 1081.000
29.25655 1012.000
29.27683 1015.000
29.29711 995.000
29.31739 1030.000
29.33767 1026.000
29.35795 1032.000
29.37823 1094.000
29.39851 1000.000
29.41879 1037.000
29.43907 1058.000
29.45935 944.000
29.47963 941.000
29.49991 978.000
29.52019 940.000
29.54047 1000.000
29.56075 1002.000
29.58103 952.000
29.60131 943.000
29.62159 994.000
29.64188 1037.000
29.66216 1049.000
29.68244 1038.000
29.70272 1034.000
29.72300 1049.000
29.74328 1035.000
29.76356 1056.000
29.78384 1103.000
29.80412 1158.000
29.82440 1144.000
29.84468 1125.000
29.86496 1171.000
29.88524 1067.000
29.90552 1202.000
29.92580 1092.000
29.94608 1111.000
29.96636 1179.000
29.98664 1076.000
30.00692 1129.000
30.02720 1133.000
30.04748 1168.000
30.06776 1097.000
30.08804 1091.000
30.10832 1083.000
30.12860 1031.000
30.14888 921.000
30.16916 900.000
30.18944 891.000
30.20972 870.000
30.23000 877.000
30.25028 794.000
30.27056 785.000
30.29084 796.000
30.31112 793.000
30.33140 849.000
30.35168 798.000
30.37196 852.000
30.39224 896.000
30.41252 873.000
30.43280 977.000
30.45308 908.000
30.47336 922.000
30.49364 927.000
30.51392 873.000
30.53420 890.000
30.55448 826.000
30.57476 722.000
30.59504 703.000
30.61532 679.000
30.63560 643.000
30.65588 649.000
30.67616 603.000
30.69644 598.000
30.71672 557.000
30.73700 580.000
30.75728 588.000
30.77756 558.000
30.79784 604.000
30.81812 590.000
30.83840 586.000
30.85868 580.000
30.87896 597.000
30.89924 630.000
30.91952 617.000
30.93980 650.000
30.96008 638.000
30.98036 679.000
31.00064 647.000
31.02092 684.000
31.04120 721.000
31.06148 784.000
31.08176 773.000
31.10204 794.000
31.12232 792.000
31.14260 819.000
31.16288 836.000
31.18316 778.000
31.20344 796.000
31.22372 842.000
31.24400 814.000
31.26428 840.000
31.28456 710.000
31.30484 767.000
31.32512 730.000
31.34540 636.000
31.36568 675.000
31.38596 628.000
31.40624 632.000
31.42652 611.000
31.44680 586.000
31.46708 590.000
31.48736 648.000
31.50764 585.000
31.52792 625.000
31.54821 577.000
31.56849 594.000
31.58877 615.000
31.60905 684.000
31.62933 613.000
31.64961 655.000
31.66989 681.000
31.69017 683.000
31.71045 704.000
31.73073 725.000
31.75101 721.000
31.77129 694.000
31.79157 733.000
31.81185 684.000
31.83213 760.000
31.85241 740.000
31.87269 789.000
31.89297 752.000
31.91325 721.000
31.93353 749.000
31.95381 746.000
31.97409 764.000
31.99437 750.000
32.01465 845.000
32.03493 761.000
32.05521 763.000
32.07549 765.000
32.09577 762.000
32.11605 742.000
32.13633 711.000
32.15661 699.000
32.17689 763.000
32.19717 636.000
32.21745 706.000
32.23773 706.000
32.25801 701.000
32.27829 637.000
32.29857 627.000
32.31885 606.000
32.33913 642.000
32.35941 641.000
32.37969 633.000
32.39997 617.000
32.42025 601.000
32.44053 552.000
32.46081 605.000
32.48109 550.000
32.50137 629.000
32.52165 522.000
32.54193 539.000
32.56221 516.000
32.58249 563.000
32.60277 564.000
32.62305 533.000
32.64333 537.000
32.66361 521.000
32.68389 604.000
32.70417 581.000
32.72445 587.000
32.74473 614.000
32.76501 611.000
32.78529 671.000
32.80557 624.000
32.82585 657.000
32.84613 646.000
32.86641 635.000
32.88669 625.000
32.90697 668.000
32.92725 662.000
32.94753 673.000
32.96781 704.000
32.98809 722.000
33.00837 693.000
33.02865 683.000
33.04893 719.000
33.06921 688.000
33.08949 752.000
33.10977 725.000
33.13005 716.000
33.15033 680.000
33.17061 739.000
33.19089 744.000
33.21117 712.000
33.23145 714.000
33.25173 785.000
33.27201 774.000
33.29229 798.000
33.31257 751.000
33.33285 852.000
33.35313 801.000
33.37341 911.000
33.39369 819.000
33.41397 794.000
33.43425 838.000
33.45454 755.000
33.47482 789.000
33.49510 710.000
33.51538 720.000
33.53566 666.000
33.55594 620.000
33.57622 609.000
33.59650 638.000
33.61678 603.000
33.63706 641.000
33.65734 607.000
33.67762 563.000
33.69790 610.000
33.71818 557.000
33.73846 590.000
33.75874 577.000
33.77902 551.000
33.79930 533.000
33.81958 581.000
33.83986 558.000
33.86014 638.000
33.88042 597.000
33.90070 627.000
33.92098 586.000
33.94126 593.000
33.96154 627.000
33.98182 628.000
34.00210 638.000
34.02238 637.000
34.04266 662.000
34.06294 669.000
34.08322 680.000
34.10350 701.000
34.12378 716.000
34.14406 670.000
34.16434 674.000
34.18462 699.000
34.20490 705.000
34.22518 722.000
34.24546 724.000
34.26574 788.000
34.28602 719.000
34.30630 754.000
34.32658 802.000
34.34686 831.000
34.36714 805.000
34.38742 792.000
34.40770 837.000
34.42798 912.000
34.44826 885.000
34.46854 902.000
34.48882 929.000
34.50910 1062.000
34.52938 1147.000
34.54966 1146.000
34.56994 1227.000
34.59022 1234.000
34.61050 1271.000
34.63078 1267.000
34.65106 1156.000
34.67134 1159.000
34.69162 1190.000
34.71190 1145.000
34.73218 1053.000
34.75246 1014.000
34.77274 991.000
34.79302 921.000
34.81330 906.000
34.83358 927.000
34.85386 861.000
34.87414 945.000
34.89442 938.000
34.91470 944.000
34.93498 965.000
34.95526 953.000
34.97554 1033.000
34.99582 1013.000
35.01610 911.000
35.03638 913.000
35.05666 900.000
35.07694 876.000
35.09722 852.000
35.11750 806.000
35.13778 796.000
35.15806 781.000
35.17834 764.000
35.19862 780.000
35.21890 734.000
35.23918 678.000
35.25946 656.000
35.27974 647.000
35.30002 657.000
35.32030 654.000
35.34058 667.000
35.36087 655.000
35.38115 678.000
35.40143 636.000
35.42171 654.000
35.44199 669.000
35.46227 667.000
35.48255 679.000
35.50283 646.000
35.52311 644.000
35.54339 680.000
35.56367 675.000
35.58395 665.000
35.60423 650.000
35.62451 630.000
35.64479 601.000
35.66507 596.000
35.68535 603.000
35.70563 597.000
35.72591 615.000
35.74619 568.000
35.76647 587.000
35.78675 597.000
35.80703 550.000
35.82731 574.000
35.84759 525.000
35.86787 507.000
35.88815 532.000
35.90843 492.000
35.92871 529.000
35.94899 509.000
35.96927 560.000
35.98955 515.000
36.00983 480.000
36.03011 551.000
36.05039 569.000
36.07067 562.000
36.09095 589.000
36.11123 555.000
36.13151 615.000
36.15179 579.000
36.17207 613.000
36.19235 625.000
36.21263 614.000
36.23291 637.000
36.25319 658.000
36.27347 647.000
36.29375 665.000
36.31403 636.000
36.33431 681.000
36.35459 713.000
36.37487 640.000
36.39515 681.000
36.41543 736.000
36.43571 726.000
36.45599 623.000
36.47627 722.000
36.49655 687.000
36.51683 785.000
36.53711 731.000
36.55739 773.000
36.57767 754.000
36.59795 781.000
36.61823 865.000
36.63851 848.000
36.65879 850.000
36.67907 865.000
36.69935 853.000
36.71963 907.000
36.73991 883.000
36.76019 866.000
36.78047 883.000
36.80075 861.000
36.82103 876.000
36.84131 917.000
36.86159 885.000
36.88187 916.000
36.90215 842.000
36.92243 803.000
36.94271 840.000
36.96299 813.000
36.98327 836.000
37.00355 749.000
37.02383 710.000
37.04411 766.000
37.06439 764.000
37.08467 757.000
37.10495 726.000
37.12523 717.000
37.14551 708.000
37.16579 713.000
37.18607 733.000
37.20635 702.000
37.22663 668.000
37.24691 659.000
37.26720 671.000
37.28748 655.000
37.30776 680.000
37.32804 651.000
37.34832 647.000
37.36860 615.000
37.38888 637.000
37.40916 604.000
37.42944 605.000
37.44972 611.000
37.47000 542.000
37.49028 602.000
37.51056 579.000
37.53084 621.000
37.55112 567.000
37.57140 599.000
37.59168 628.000
37.61196 648.000
37.63224 625.000
37.65252 612.000
37.67280 586.000
37.69308 638.000
37.71336 631.000
37.73364 618.000
37.75392 615.000
37.77420 649.000
37.79448 689.000
37.81476 685.000
37.83504 620.000
37.85532 687.000
37.87560 691.000
37.89588 734.000
37.91616 751.000
37.93644 710.000
37.95672 761.000
37.97700 701.000
37.99728 756.000
38.01756 770.000
38.03784 773.000
38.05812 752.000
38.07840 797.000
38.09868 749.000
38.11896 753.000
38.13924 704.000
38.15952 726.000
38.17980 682.000
38.20008 664.000
38.22036 646.000
38.24064 640.000
38.26092 636.000
38.28120 619.000
38.30148 604.000
38.32176 587.000
38.34204 612.000
38.36232 582.000
38.38260 617.000
38.40288 604.000
38.42316 586.000
38.44344 669.000
38.46372 594.000
38.48400 652.000
38.50428 671.000
38.52456 600.000
38.54484 601.000
38.56512 637.000
38.58540 563.000
38.60568 588.000
38.62596 576.000
38.64624 583.000
38.66652 570.000
38.68680 559.000
38.70708 564.000
38.72736 561.000
38.74764 532.000
38.76792 562.000
38.78820 547.000
38.80848 536.000
38.82876 547.000
38.84904 487.000
38.86932 524.000
38.88960 510.000
38.90988 521.000
38.93016 533.000
38.95044 560.000
38.97072 551.000
38.99100 525.000
39.01128 502.000
39.03156 527.000
39.05184 542.000
39.07212 520.000
39.09240 512.000
39.11268 554.000
39.13296 524.000
39.15324 562.000
39.17353 542.000
39.19381 564.000
39.21409 566.000
39.23437 542.000
39.25465 573.000
39.27493 571.000
39.29521 565.000
39.31549 559.000
39.33577 524.000
39.35605 617.000
39.37633 561.000
39.39661 632.000
39.41689 640.000
39.43717 634.000
39.45745 625.000
39.47773 636.000
39.49801 619.000
39.51829 638.000
39.53857 696.000
39.55885 683.000
39.57913 684.000
39.59941 669.000
39.61969 688.000
39.63997 675.000
39.66025 756.000
39.68053 732.000
39.70081 708.000
39.72109 753.000
39.74137 702.000
39.76165 731.000
39.78193 717.000
39.80221 696.000
39.82249 706.000
39.84277 646.000
39.86305 648.000
39.88333 649.000
39.90361 632.000
39.92389 660.000
39.94417 663.000
39.96445 629.000
39.98473 620.000
40.00501 619.000
40.02529 690.000
40.04557 655.000
40.06585 669.000
40.08613 712.000
40.10641 703.000
40.12669 767.000
40.14697 778.000
40.16725 763.000
40.18753 808.000
40.20781 733.000
40.22809 814.000
40.24837 831.000
40.26865 799.000
40.28893 830.000
40.30921 809.000
40.32949 826.000
40.34977 872.000
40.37005 752.000
40.39033 775.000
40.41061 746.000
40.43089 783.000
40.45117 821.000
40.47145 808.000
40.49173 714.000
40.51201 688.000
40.53229 732.000
40.55257 675.000
40.57285 674.000
40.59313 665.000
40.61341 629.000
40.63369 642.000
40.65397 655.000
40.67425 590.000
40.69453 614.000
40.71481 639.000
40.73509 563.000
40.75537 585.000
40.77565 555.000
40.79593 564.000
40.81621 540.000
40.83649 578.000
40.85677 536.000
40.87705 566.000
40.89733 596.000
40.91761 568.000
40.93789 569.000
40.95817 551.000
40.97845 519.000
40.99873 519.000
41.01901 564.000
41.03929 544.000
41.05957 603.000
41.07986 585.000
41.10014 596.000
41.12042 583.000
41.14070 577.000
41.16098 559.000
41.18126 564.000
41.20154 644.000
41.22182 574.000
41.24210 589.000
41.26238 641.000
41.28266 675.000
41.30294 608.000
41.32322 695.000
41.34350 628.000
41.36378 738.000
41.38406 677.000
41.40434 673.000
41.42462 694.000
41.44490 680.000
41.46518 669.000
41.48546 684.000
41.50574 769.000
41.52602 646.000
41.54630 739.000
41.56658 737.000
41.58686 724.000
41.60714 776.000
41.62742 756.000
41.64770 755.000
41.66798 733.000
41.68826 779.000
41.70854 702.000
41.72882 755.000
41.74910 760.000
41.76938 756.000
41.78966 725.000
41.80994 818.000
41.83022 788.000
41.85050 742.000
41.87078 720.000
41.89106 716.000
41.91134 692.000
41.93162 654.000
41.95190 573.000
41.97218 596.000
41.99246 620.000
42.01274 601.000
42.03302 617.000
42.05330 569.000
42.07358 536.000
42.09386 577.000
42.11414 561.000
42.13442 577.000
42.15470 532.000
42.17498 526.000
42.19526 526.000
42.21554 502.000
42.23582 511.000
42.25610 532.000
42.27638 515.000
42.29666 515.000
42.31694 533.000
42.33722 520.000
42.35750 517.000
42.37778 506.000
42.39806 515.000
42.41834 490.000
42.43862 535.000
42.45890 495.000
42.47918 501.000
42.49946 507.000
42.51974 475.000
42.54002 519.000
42.56030 462.000
42.58058 526.000
42.60086 448.000
42.62114 477.000
42.64142 478.000
42.66170 487.000
42.68198 441.000
42.70226 460.000
42.72254 421.000
42.74282 491.000
42.76310 479.000
42.78338 506.000
42.80366 474.000
42.82394 498.000
42.84422 481.000
42.86450 499.000
42.88478 496.000
42.90506 491.000
42.92534 510.000
42.94562 468.000
42.96590 514.000
42.98619 533.000
43.00647 547.000
43.02675 512.000
43.04703 527.000
43.06731 531.000
43.08759 531.000
43.10787 586.000
43.12815 582.000
43.14843 559.000
43.16871 606.000
43.18899 585.000
43.20927 570.000
43.22955 567.000
43.24983 658.000
43.27011 659.000
43.29039 657.000
43.31067 658.000
43.33095 658.000
43.35123 631.000
43.37151 656.000
43.39179 649.000
43.41207 674.000
43.43235 659.000
43.45263 661.000
43.47291 665.000
43.49319 677.000
43.51347 673.000
43.53375 672.000
43.55403 690.000
43.57431 639.000
43.59459 639.000
43.61487 661.000
43.63515 598.000
43.65543 666.000
43.67571 615.000
43.69599 638.000
43.71627 696.000
43.73655 667.000
43.75683 651.000
43.77711 658.000
43.79739 671.000
43.81767 708.000
43.83795 660.000
43.85823 654.000
43.87851 713.000
43.89879 661.000
43.91907 712.000
43.93935 699.000
43.95963 704.000
43.97991 675.000
44.00019 719.000
44.02047 671.000
44.04075 692.000
44.06103 730.000
44.08131 718.000
44.10159 652.000
44.12187 668.000
44.14215 685.000
44.16243 658.000
44.18271 680.000
44.20299 669.000
44.22327 653.000
44.24355 636.000
44.26383 624.000
44.28411 654.000
44.30439 616.000
44.32467 610.000
44.34495 542.000
44.36523 589.000
44.38551 566.000
44.40579 564.000
44.42607 574.000
44.44635 585.000
44.46663 560.000
44.48691 580.000
44.50719 551.000
44.52747 531.000
44.54775 544.000
44.56803 531.000
44.58831 504.000
44.60859 534.000
44.62887 517.000
44.64915 503.000
44.66943 542.000
44.68971 520.000
44.70999 559.000
44.73027 545.000
44.75055 530.000
44.77083 598.000
44.79111 586.000
44.81139 565.000
44.83167 596.000
44.85195 532.000
44.87223 553.000
44.89251 601.000
44.91280 537.000
44.93308 573.000
44.95336 540.000
44.97364 613.000
44.99392 575.000
45.01420 569.000
45.03448 571.000
45.05476 593.000
45.07504 555.000
45.09532 559.000
45.11560 583.000
45.13588 545.000
45.15616 530.000
45.17644 543.000
45.19672 522.000
45.21700 522.000
45.23728 543.000
45.25756 539.000
45.27784 512.000
45.29812 485.000
45.31840 527.000
45.33868 543.000
45.35896 482.000
45.37924 524.000
45.39952 544.000
45.41980 523.000
45.44008 535.000
45.46036 542.000
45.48064 569.000
45.50092 529.000
45.52120 552.000
45.54148 521.000
45.56176 575.000
45.58204 575.000
45.60232 522.000
45.62260 567.000
45.64288 554.000
45.66316 577.000
45.68344 533.000
45.70372 532.000
45.72400 537.000
45.74428 574.000
45.76456 572.000
45.78484 599.000
45.80512 535.000
45.82540 553.000
45.84568 609.000
45.86596 563.000
45.88624 550.000
45.90652 544.000
45.92680 535.000
45.94708 499.000
45.96736 531.000
45.98764 514.000
46.00792 509.000
46.02820 565.000
46.04848 508.000
46.06876 514.000
46.08904 538.000
46.10932 502.000
46.12960 556.000
46.14988 530.000
46.17016 506.000
46.19044 516.000
46.21072 540.000
46.23100 564.000
46.25128 539.000
46.27156 551.000
46.29184 538.000
46.31212 564.000
46.33240 539.000
46.35268 560.000
46.37296 592.000
46.39324 548.000
46.41352 536.000
46.43380 565.000
46.45408 552.000
46.47436 600.000
46.49464 527.000
46.51492 575.000
46.53520 569.000
46.55548 585.000
46.57576 588.000
46.59604 587.000
46.61632 591.000
46.63660 575.000
46.65688 605.000
46.67716 531.000
46.69744 564.000
46.71772 563.000
46.73800 528.000
46.75828 552.000
46.77856 569.000
46.79884 564.000
46.81913 555.000
46.83941 534.000
46.85969 501.000
46.87997 554.000
46.90025 557.000
46.92053 550.000
46.94081 528.000
46.96109 537.000
46.98137 519.000
47.00165 561.000
47.02193 512.000
47.04221 549.000
47.06249 504.000
47.08277 550.000
47.10305 524.000
47.12333 553.000
47.14361 563.000
47.16389 533.000
47.18417 527.000
47.20445 518.000
47.22473 564.000
47.24501 589.000
47.26529 575.000
47.28557 587.000
47.30585 598.000
47.32613 623.000
47.34641 593.000
47.36669 569.000
47.38697 579.000
47.40725 597.000
47.42753 630.000
47.44781 609.000
47.46809 586.000
47.48837 632.000
47.50865 557.000
47.52893 629.000
47.54921 630.000
47.56949 606.000
47.58977 598.000
47.61005 612.000
47.63033 576.000
47.65061 558.000
47.67089 579.000
47.69117 565.000
47.71145 550.000
47.73173 589.000
47.75201 562.000
47.77229 540.000
47.79257 515.000
47.81285 561.000
47.83313 521.000
47.85341 532.000
47.87369 525.000
47.89397 562.000
47.91425 510.000
47.93453 538.000
47.95481 521.000
47.97509 528.000
47.99537 510.000
48.01565 503.000
48.03593 538.000
48.05621 541.000
48.07649 497.000
48.09677 505.000
48.11705 483.000
48.13733 503.000
48.15761 490.000
48.17789 478.000
48.19817 452.000
48.21845 449.000
48.23873 472.000
48.25901 466.000
48.27929 461.000
48.29957 445.000
48.31985 509.000
48.34013 489.000
48.36041 469.000
48.38069 461.000
48.40097 471.000
48.42125 430.000
48.44153 462.000
48.46181 470.000
48.48209 467.000
48.50237 486.000
48.52265 489.000
48.54293 462.000
48.56321 489.000
48.58349 474.000
48.60377 468.000
48.62405 528.000
48.64433 462.000
48.66461 454.000
48.68489 471.000
48.70517 469.000
48.72546 443.000
48.74574 471.000
48.76602 465.000
48.78630 460.000
48.80658 413.000
48.82686 451.000
48.84714 426.000
48.86742 412.000
48.88770 417.000
48.90798 447.000
48.92826 428.000
48.94854 423.000
48.96882 454.000
48.98910 477.000
49.00938 424.000
49.02966 433.000
49.04994 413.000
49.07022 451.000
49.09050 443.000
49.11078 458.000
49.13106 407.000
49.15134 466.000
49.17162 476.000
49.19190 447.000
49.21218 471.000
49.23246 425.000
49.25274 479.000
49.27302 487.000
49.29330 485.000
49.31358 466.000
49.33386 510.000
49.35414 469.000
49.37442 467.000
49.39470 480.000
49.41498 495.000
49.43526 500.000
49.45554 474.000
49.47582 481.000
49.49610 439.000
49.51638 450.000
49.53666 443.000
49.55694 518.000
49.57722 457.000
49.59750 473.000
49.61778 484.000
49.63806 496.000
49.65834 498.000
49.67862 437.000
49.69890 500.000
49.71918 464.000
49.73946 474.000
49.75974 469.000
49.78002 459.000
49.80030 462.000
49.82058 485.000
49.84086 490.000
49.86114 462.000
49.88142 497.000
49.90170 436.000
49.92198 467.000
49.94226 467.000
49.96254 492.000
49.98282 477.000
50.00310 477.000
50.02338 470.000
50.04366 506.000
50.06394 457.000
50.08422 412.000
50.10450 476.000
50.12478 468.000
50.14506 486.000
50.16534 467.000
50.18562 527.000
50.20590 506.000
50.22618 489.000
50.24646 517.000
50.26674 527.000
50.28702 529.000
50.30730 546.000
50.32758 541.000
50.34786 519.000
50.36814 533.000
50.38842 561.000
50.40870 540.000
50.42898 586.000
50.44926 519.000
50.46954 558.000
50.48982 512.000
50.51010 567.000
50.53038 549.000
50.55066 580.000
50.57094 506.000
50.59122 525.000
50.61150 497.000
50.63179 491.000
50.65207 497.000
50.67235 543.000
50.69263 517.000
50.71291 495.000
50.73319 475.000
50.75347 478.000
50.77375 477.000
50.79403 456.000
50.81431 463.000
50.83459 476.000
50.85487 455.000
50.87515 452.000
50.89543 479.000
50.91571 488.000
50.93599 476.000
50.95627 471.000
50.97655 477.000
50.99683 470.000
