5.00155 649.000
5.02183 680.000
5.04211 619.000
5.06239 624.000
5.08267 630.000
5.10295 646.000
5.12323 644.000
5.14351 643.000
5.16379 610.000
5.18407 616.000
5.20435 570.000
5.22463 599.000
5.24491 596.000
5.26519 533.000
5.28547 638.000
5.30575 605.000
5.32603 599.000
5.34631 616.000
5.36659 561.000
5.38687 618.000
5.40715 539.000
5.42743 580.000
5.44771 600.000
5.46799 543.000
5.48827 559.000
5.50855 556.000
5.52883 520.000
5.54911 562.000
5.56939 554.000
5.58967 527.000
5.60995 532.000
5.63023 573.000
5.65051 519.000
5.67079 528.000
5.69107 533.000
5.71135 520.000
5.73163 538.000
5.75191 552.000
5.77219 494.000
5.79247 527.000
5.81275 508.000
5.83303 509.000
5.85331 541.000
5.87359 532.000
5.89387 504.000
5.91415 558.000
5.93443 496.000
5.95471 489.000
5.97499 516.000
5.99527 553.000
6.01555 501.000
6.03583 525.000
6.05611 489.000
6.07639 540.000
6.09667 523.000
6.11695 529.000
6.13723 550.000
6.15751 451.000
6.17779 477.000
6.19807 513.000
6.21835 452.000
6.23863 513.000
6.25891 488.000
6.27919 541.000
6.29947 526.000
6.31975 536.000
6.34003 464.000
6.36031 528.000
6.38059 482.000
6.40087 488.000
6.42115 512.000
6.44143 540.000
6.46171 596.000
6.48199 610.000
6.50227 646.000
6.52255 664.000
6.54283 693.000
6.56311 751.000
6.58339 848.000
6.60367 969.000
6.62395 1079.000
6.64423 1294.000
6.66451 1495.000
6.68479 1780.000
6.70507 2242.000
6.72536 2746.000
6.74564 3240.000
6.76592 3966.000
6.78620 4792.000
6.80648 5537.000
6.82676 6191.000
6.84704 6892.000
6.86732 7254.000
6.88760 7270.000
6.90788 6564.000
6.92816 5858.000
6.94844 4718.000
6.96872 3581.000
6.98900 2323.000
7.00928 1718.000
7.02956 1213.000
7.04984 978.000
7.07012 907.000
7.09040 829.000
7.11068 701.000
7.13096 713.000
7.15124 672.000
7.17152 636.000
7.19180 586.000
7.21208 589.000
7.23236 575.000
7.25264 539.000
7.27292 526.000
7.29320 543.000
7.31348 529.000
7.33376 498.000
7.35404 456.000
7.37432 457.000
7.39460 548.000
7.41488 508.000
7.43516 471.000
7.45544 495.000
7.47572 507.000
7.49600 493.000
7.51628 499.000
7.53656 435.000
7.55684 488.000
7.57712 509.000
7.59740 479.000
7.61768 485.000
7.63796 451.000
7.65824 475.000
7.67852 518.000
7.69880 431.000
7.71908 475.000
7.73936 485.000
7.75964 468.000
7.77992 510.000
7.80020 507.000
7.82048 462.000
7.84076 519.000
7.86104 508.000
7.88132 480.000
7.90160 473.000
7.92188 493.000
7.94216 520.000
7.96244 519.000
7.98272 510.000
8.00300 532.000
8.02328 530.000
8.04356 587.000
8.06384 605.000
8.08412 603.000
8.10440 724.000
8.12468 707.000
8.14496 776.000
8.16524 891.000
8.18552 1077.000
8.20580 1224.000
8.22608 1484.000
8.24636 1735.000
8.26664 2166.000
8.28692 2567.000
8.30720 3051.000
8.32748 3774.000
8.34776 4525.000
8.36804 5307.000
8.38832 6105.000
8.40860 6818.000
8.42888 7161.000
8.44916 7238.000
8.46944 6834.000
8.48972 5311.000
8.51000 4189.000
8.53028 3048.000
8.55056 2059.000
8.57084 1539.000
8.59112 1318.000
8.61140 1089.000
8.63168 881.000
8.65197 948.000
8.67225 829.000
8.69253 781.000
8.71281 774.000
8.73309 710.000
8.75337 729.000
8.77365 671.000
8.79393 642.000
8.81421 613.000
8.83449 554.000
8.85477 564.000
8.87505 530.000
8.89533 562.000
8.91561 524.000
8.93589 530.000
8.95617 524.000
8.97645 525.000
8.99673 506.000
9.01701 482.000
9.03729 460.000
9.05757 520.000
9.07785 512.000
9.09813 532.000
9.11841 499.000
9.13869 476.000
9.15897 448.000
9.17925 490.000
9.19953 449.000
9.21981 459.000
9.24009 473.000
9.26037 435.000
9.28065 477.000
9.30093 458.000
9.32121 429.000
9.34149 472.000
9.36177 476.000
9.38205 452.000
9.40233 460.000
9.42261 392.000
9.44289 455.000
9.46317 435.000
9.48345 486.000
9.50373 496.000
9.52401 570.000
9.54429 522.000
9.56457 509.000
9.58485 531.000
9.60513 466.000
9.62541 444.000
9.64569 482.000
9.66597 436.000
9.68625 477.000
9.70653 466.000
9.72681 455.000
9.74709 412.000
9.76737 470.000
9.78765 470.000
9.80793 451.000
9.82821 481.000
9.84849 486.000
9.86877 533.000
9.88905 523.000
9.90933 533.000
9.92961 543.000
9.94989 516.000
9.97017 494.000
9.99045 524.000
10.01073 474.000
10.03101 491.000
10.05129 450.000
10.07157 481.000
10.09185 495.000
10.11213 479.000
10.13241 486.000
10.15269 428.000
10.17297 433.000
10.19325 437.000
10.21353 423.000
10.23381 448.000
10.25409 415.000
10.27437 445.000
10.29465 429.000
10.31493 459.000
10.33521 451.000
10.35549 463.000
10.37577 479.000
10.39605 502.000
10.41633 543.000
10.43661 572.000
10.45689 588.000
10.47717 725.000
10.49745 825.000
10.51773 819.000
10.53801 1001.000
10.55830 1139.000
10.57858 1248.000
10.59886 1430.000
10.61914 1378.000
10.63942 1367.000
10.65970 1288.000
10.67998 1070.000
10.70026 954.000
10.72054 710.000
10.74082 625.000
10.76110 614.000
10.78138 559.000
10.80166 581.000
10.82194 553.000
10.84222 528.000
10.86250 512.000
10.88278 503.000
10.90306 502.000
10.92334 471.000
10.94362 496.000
10.96390 438.000
10.98418 480.000
11.00446 491.000
11.02474 494.000
11.04502 445.000
11.06530 470.000
11.08558 425.000
11.10586 437.000
11.12614 395.000
11.14642 441.000
11.16670 380.000
11.18698 427.000
11.20726 423.000
11.22754 412.000
11.24782 379.000
11.26810 411.000
11.28838 435.000
11.30866 379.000
11.32894 405.000
11.34922 392.000
11.36950 410.000
11.38978 420.000
11.41006 400.000
11.43034 381.000
11.45062 400.000
11.47090 368.000
11.49118 412.000
11.51146 394.000
11.53174 396.000
11.55202 427.000
11.57230 402.000
11.59258 389.000
11.61286 411.000
11.63314 406.000
11.65342 394.000
11.67370 428.000
11.69398 409.000
11.71426 362.000
11.73454 395.000
11.75482 418.000
11.77510 403.000
11.79538 472.000
11.81566 388.000
11.83594 395.000
11.85622 387.000
11.87650 406.000
11.89678 414.000
11.91706 401.000
11.93734 386.000
11.95762 370.000
11.97790 399.000
11.99818 386.000
12.01846 376.000
12.03874 367.000
12.05902 402.000
12.07930 374.000
12.09958 355.000
12.11986 371.000
12.14014 418.000
12.16042 481.000
12.18070 379.000
12.20098 415.000
12.22126 458.000
12.24154 430.000
12.26182 413.000
12.28210 428.000
12.30238 409.000
12.32266 448.000
12.34294 392.000
12.36322 388.000
12.38350 396.000
12.40378 428.000
12.42406 374.000
12.44434 411.000
12.46463 419.000
12.48491 435.000
12.50519 414.000
12.52547 411.000
12.54575 439.000
12.56603 401.000
12.58631 383.000
12.60659 397.000
12.62687 419.000
12.64715 401.000
12.66743 462.000
12.68771 431.000
12.70799 438.000
12.72827 378.000
12.74855 411.000
12.76883 411.000
12.78911 442.000
12.80939 413.000
12.82967 405.000
12.84995 437.000
12.87023 394.000
12.89051 463.000
12.91079 430.000
12.93107 444.000
12.95135 424.000
12.97163 459.000
12.99191 468.000
13.01219 436.000
13.03247 521.000
13.05275 487.000
13.07303 512.000
13.09331 563.000
13.11359 571.000
13.13387 609.000
13.15415 723.000
13.17443 787.000
13.19471 892.000
13.21499 872.000
13.23527 984.000
13.25555 1074.000
13.27583 1121.000
13.29611 1100.000
13.31639 1109.000
13.33667 1087.000
13.35695 1232.000
13.37723 1173.000
13.39751 1242.000
13.41779 1312.000
13.43807 1302.000
13.45835 1327.000
13.47863 1316.000
13.49891 1377.000
13.51919 1503.000
13.53947 1590.000
13.55975 1894.000
13.58003 1836.000
13.60031 2038.000
13.62059 2111.000
13.64087 2022.000
13.66115 1728.000
13.68143 1621.000
13.70171 1444.000
13.72199 1322.000
13.74227 1231.000
13.76255 1021.000
13.78283 986.000
13.80311 779.000
13.82339 784.000
13.84367 648.000
13.86395 601.000
13.88423 606.000
13.90451 552.000
13.92479 542.000
13.94507 491.000
13.96535 493.000
13.98563 476.000
14.00591 464.000
14.02619 503.000
14.04647 527.000
14.06675 463.000
14.08703 504.000
14.10731 498.000
14.12759 494.000
14.14787 514.000
14.16815 466.000
14.18843 460.000
14.20871 485.000
14.22899 469.000
14.24927 495.000
14.26955 504.000
14.28983 488.000
14.31011 511.000
14.33039 516.000
14.35067 510.000
14.37096 509.000
14.39124 558.000
14.41152 543.000
14.43180 549.000
14.45208 546.000
14.47236 590.000
14.49264 627.000
14.51292 674.000
14.53320 746.000
14.55348 734.000
14.57376 943.000
14.59404 1127.000
14.61432 1311.000
14.63460 1546.000
14.65488 1920.000
14.67516 2250.000
14.69544 2594.000
14.71572 2880.000
14.73600 2955.000
14.75628 2755.000
14.77656 2626.000
14.79684 2175.000
14.81712 1762.000
14.83740 1555.000
14.85768 1356.000
14.87796 1332.000
14.89824 1400.000
14.91852 1551.000
14.93880 1684.000
14.95908 1771.000
14.97936 1802.000
14.99964 1827.000
15.01992 1742.000
15.04020 1447.000
15.06048 1211.000
15.08076 1001.000
15.10104 779.000
15.12132 715.000
15.14160 598.000
15.16188 627.000
15.18216 634.000
15.20244 566.000
15.22272 556.000
15.24300 558.000
15.26328 565.000
15.28356 546.000
15.30384 513.000
15.32412 497.000
15.34440 500.000
15.36468 492.000
15.38496 532.000
15.40524 538.000
15.42552 537.000
15.44580 525.000
15.46608 502.000
15.48636 511.000
15.50664 513.000
15.52692 520.000
15.54720 548.000
15.56748 567.000
15.58776 523.000
15.60804 550.000
15.62832 509.000
15.64860 542.000
15.66888 523.000
15.68916 517.000
15.70944 520.000
15.72972 545.000
15.75000 541.000
15.77028 587.000
15.79056 568.000
15.81084 568.000
15.83112 581.000
15.85140 560.000
15.87168 623.000
15.89196 601.000
15.91224 530.000
15.93252 591.000
15.95280 670.000
15.97308 691.000
15.99336 604.000
16.01364 673.000
16.03392 706.000
16.05420 700.000
16.07448 744.000
16.09476 685.000
16.11504 755.000
16.13532 813.000
16.15560 814.000
16.17588 882.000
16.19616 937.000
16.21644 988.000
16.23672 1095.000
16.25700 1280.000
16.27729 1439.000
16.29757 1774.000
16.31785 2113.000
16.33813 2568.000
16.35841 3055.000
16.37869 3619.000
16.39897 4040.000
16.41925 4305.000
16.43953 4457.000
16.45981 4405.000
16.48009 3993.000
16.50037 3620.000
16.52065 3193.000
16.54093 2733.000
16.56121 2427.000
16.58149 2246.000
16.60177 2264.000
16.62205 2237.000
16.64233 2421.000
16.66261 2483.000
16.68289 2604.000
16.70317 2823.000
16.72345 2759.000
16.74373 2886.000
16.76401 2951.000
16.78429 3200.000
16.80457 3492.000
16.82485 3638.000
16.84513 3906.000
16.86541 3855.000
16.88569 3660.000
16.90597 3277.000
16.92625 2843.000
16.94653 2637.000
16.96681 2462.000
16.98709 2246.000
17.00737 2366.000
17.02765 2610.000
17.04793 3124.000
17.06821 3597.000
17.08849 4214.000
17.10877 4779.000
17.12905 5511.000
17.14933 5901.000
17.16961 6364.000
17.18989 6325.000
17.21017 5774.000
17.23045 5279.000
17.25073 4294.000
17.27101 3492.000
17.29129 2917.000
17.31157 2303.000
17.33185 1953.000
17.35213 1633.000
17.37241 1366.000
17.39269 1336.000
17.41297 1232.000
17.43325 1197.000
17.45353 1074.000
17.47381 1079.000
17.49409 931.000
17.51437 895.000
17.53465 940.000
17.55493 937.000
17.57521 909.000
17.59549 914.000
17.61577 944.000
17.63605 959.000
17.65633 971.000
17.67661 921.000
17.69689 992.000
17.71717 1003.000
17.73745 1044.000
17.75773 1097.000
17.77801 1152.000
17.79829 1209.000
17.81857 1281.000
17.83885 1421.000
17.85913 1392.000
17.87941 1494.000
17.89969 1550.000
17.91997 1705.000
17.94025 1838.000
17.96053 2224.000
17.98081 2484.000
18.00109 2978.000
18.02137 3712.000
18.04165 4299.000
18.06193 5486.000
18.08221 6424.000
18.10249 7336.000
18.12277 8395.000
18.14305 9157.000
18.16333 9243.000
18.18362 9213.000
18.20390 8822.000
18.22418 7635.000
18.24446 6418.000
18.26474 5318.000
18.28502 4308.000
18.30530 3524.000
18.32558 2864.000
18.34586 2358.000
18.36614 2031.000
18.38642 1920.000
18.40670 1806.000
18.42698 1640.000
18.44726 1720.000
18.46754 1571.000
18.48782 1459.000
18.50810 1588.000
18.52838 1541.000
18.54866 1585.000
18.56894 1767.000
18.58922 1858.000
18.60950 2148.000
18.62978 2497.000
18.65006 2811.000
18.67034 3143.000
18.69062 3705.000
18.71090 4023.000
18.73118 4440.000
18.75146 4662.000
18.77174 4617.000
18.79202 4566.000
18.81230 4264.000
18.83258 3832.000
18.85286 3404.000
18.87314 2838.000
18.89342 2672.000
18.91370 2253.000
18.93398 2084.000
18.95426 1891.000
18.97454 1883.000
18.99482 1786.000
19.01510 1946.000
19.03538 2020.000
19.05566 2031.000
19.07594 2142.000
19.09622 2080.000
19.11650 2183.000
19.13678 2049.000
19.15706 1940.000
19.17734 1712.000
19.19762 1545.000
19.21790 1499.000
19.23818 1319.000
19.25846 1273.000
19.27874 1263.000
19.29902 1269.000
19.31930 1292.000
19.33958 1408.000
19.35986 1430.000
19.38014 1632.000
19.40042 1821.000
19.42070 2083.000
19.44098 2371.000
19.46126 2924.000
19.48154 3307.000
19.50182 3853.000
19.52210 4464.000
19.54238 4943.000
19.56266 5297.000
19.58294 5510.000
19.60322 5323.000
19.62350 4871.000
19.64378 4389.000
19.66406 3805.000
19.68434 3309.000
19.70462 2951.000
19.72490 2671.000
19.74518 2413.000
19.76546 2330.000
19.78574 2408.000
19.80602 2490.000
19.82630 2643.000
19.84658 2913.000
19.86686 3268.000
19.88714 3544.000
19.90742 4174.000
19.92770 4581.000
19.94798 5011.000
19.96826 5447.000
19.98854 5510.000
20.00882 5433.000
20.02910 5093.000
20.04938 4634.000
20.06966 4264.000
20.08995 3711.000
20.11023 3485.000
20.13051 3267.000
20.15079 3148.000
20.17107 3188.000
20.19135 3276.000
20.21163 3419.000
20.23191 3583.000
20.25219 3774.000
20.27247 3901.000
20.29275 4036.000
20.31303 4207.000
20.33331 4590.000
20.35359 4944.000
20.37387 5442.000
20.39415 5730.000
20.41443 5829.000
20.43471 5463.000
20.45499 5033.000
20.47527 4420.000
20.49555 3449.000
20.51583 2821.000
20.53611 2198.000
20.55639 1943.000
20.57667 1711.000
20.59695 1612.000
20.61723 1586.000
20.63751 1573.000
20.65779 1482.000
20.67807 1530.000
20.69835 1330.000
20.71863 1234.000
20.73891 1256.000
20.75919 1178.000
20.77947 1127.000
20.79975 1157.000
20.82003 1139.000
20.84031 1239.000
20.86059 1145.000
20.88087 1117.000
20.90115 1127.000
20.92143 1149.000
20.94171 1251.000
20.96199 1144.000
20.98227 1252.000
21.00255 1236.000
21.02283 1309.000
21.04311 1346.000
21.06339 1396.000
21.08367 1438.000
21.10395 1531.000
21.12423 1628.000
21.14451 1761.000
21.16479 1885.000
21.18507 1952.000
21.20535 2167.000
21.22563 2537.000
21.24591 2638.000
21.26619 3057.000
21.28647 3352.000
21.30675 3601.000
21.32703 4213.000
21.34731 4876.000
21.36759 5592.000
21.38787 6536.000
21.40815 7592.000
21.42843 8644.000
21.44871 9407.000
21.46899 10313.000
21.48927 10985.000
21.50955 11808.000
21.52983 12292.000
21.55011 13019.000
21.57039 13632.000
21.59067 13937.000
21.61095 14102.000
21.63123 13717.000
21.65151 13568.000
21.67179 13085.000
21.69207 12585.000
21.71235 11795.000
21.73263 10609.000
21.75291 9522.000
21.77319 8330.000
21.79347 7107.000
21.81375 5965.000
21.83403 4936.000
21.85431 3970.000
21.87459 3273.000
21.89487 2811.000
21.91515 2310.000
21.93543 2127.000
21.95571 1803.000
21.97599 1710.000
21.99628 1560.000
22.01656 1507.000
22.03684 1432.000
22.05712 1251.000
22.07740 1268.000
22.09768 1283.000
22.11796 1215.000
22.13824 1228.000
22.15852 1107.000
22.17880 1091.000
22.19908 1138.000
22.21936 1136.000
22.23964 1162.000
22.25992 1169.000
22.28020 1176.000
22.30048 1151.000
22.32076 1204.000
22.34104 1255.000
22.36132 1258.000
22.38160 1358.000
22.40188 1363.000
22.42216 1428.000
22.44244 1487.000
22.46272 1625.000
22.48300 1620.000
22.50328 1731.000
22.52356 1893.000
22.54384 1977.000
22.56412 1910.000
22.58440 1921.000
22.60468 1899.000
22.62496 1758.000
22.64524 1732.000
22.66552 1668.000
22.68580 1438.000
22.70608 1502.000
22.72636 1364.000
22.74664 1366.000
22.76692 1455.000
22.78720 1417.000
22.80748 1369.000
22.82776 1561.000
22.84804 1561.000
22.86832 1672.000
22.88860 1724.000
22.90888 1796.000
22.92916 1874.000
22.94944 1975.000
22.96972 1990.000
22.99000 1966.000
23.01028 1996.000
23.03056 2019.000
23.05084 1950.000
23.07112 1872.000
23.09140 1826.000
23.11168 1686.000
23.13196 1613.000
23.15224 1419.000
23.17252 1396.000
23.19280 1303.000
23.21308 1219.000
23.23336 1205.000
23.25364 1212.000
23.27392 1224.000
23.29420 1281.000
23.31448 1420.000
23.33476 1520.000
23.35504 1585.000
23.37532 1687.000
23.39560 1883.000
23.41588 2089.000
23.43616 2288.000
23.45644 2666.000
23.47672 3066.000
23.49700 3306.000
23.51728 3770.000
23.53756 3966.000
23.55784 4193.000
23.57812 4423.000
23.59840 4535.000
23.61868 4442.000
23.63896 4258.000
23.65924 4134.000
23.67952 3666.000
23.69980 3324.000
23.72008 2953.000
23.74036 2632.000
23.76064 2485.000
23.78092 2297.000
23.80120 2187.000
23.82148 2121.000
23.84176 2105.000
23.86204 2017.000
23.88232 1908.000
23.90261 1915.000
23.92289 1746.000
23.94317 1618.000
23.96345 1480.000
23.98373 1425.000
24.00401 1317.000
24.02429 1285.000
24.04457 1223.000
24.06485 1121.000
24.08513 1079.000
24.10541 1165.000
24.12569 1004.000
24.14597 1087.000
24.16625 1105.000
24.18653 1099.000
24.20681 1119.000
24.22709 1147.000
24.24737 1300.000
24.26765 1349.000
24.28793 1521.000
24.30821 1609.000
24.32849 1804.000
24.34877 1988.000
24.36905 2147.000
24.38933 2474.000
24.40961 2846.000
24.42989 2966.000
24.45017 3165.000
24.47045 3186.000
24.49073 3048.000
24.51101 2933.000
24.53129 2532.000
24.55157 2303.000
24.57185 1933.000
24.59213 1646.000
24.61241 1537.000
24.63269 1364.000
24.65297 1346.000
24.67325 1326.000
24.69353 1343.000
24.71381 1428.000
24.73409 1570.000
24.75437 1531.000
24.77465 1609.000
24.79493 1643.000
24.81521 1682.000
24.83549 1697.000
24.85577 1563.000
24.87605 1534.000
24.89633 1368.000
24.91661 1213.000
24.93689 1175.000
24.95717 1097.000
24.97745 1100.000
24.99773 1022.000
25.01801 1136.000
25.03829 1160.000
25.05857 1230.000
25.07885 1240.000
25.09913 1414.000
25.11941 1458.000
25.13969 1591.000
25.15997 1807.000
25.18025 1915.000
25.20053 2103.000
25.22081 2222.000
25.24109 2357.000
25.26137 2361.000
25.28165 2371.000
25.30193 2384.000
25.32221 2401.000
25.34249 2234.000
25.36277 2127.000
25.38305 2051.000
25.40333 1869.000
25.42361 1963.000
25.44389 1745.000
25.46417 1823.000
25.48445 1921.000
25.50473 1859.000
25.52501 1877.000
25.54529 1885.000
25.56557 1718.000
25.58585 1618.000
25.60613 1464.000
25.62641 1459.000
25.64669 1385.000
25.66697 1210.000
25.68725 1151.000
25.70753 1066.000
25.72781 1042.000
25.74809 1004.000
25.76837 984.000
25.78865 1049.000
25.80893 1054.000
25.82922 992.000
25.84950 1063.000
25.86978 1199.000
25.89006 1150.000
25.91034 1185.000
25.93062 1336.000
25.95090 1393.000
25.97118 1554.000
25.99146 1617.000
26.01174 1795.000
26.03202 1915.000
26.05230 2063.000
26.07258 2190.000
26.09286 2228.000
26.11314 2341.000
26.13342 2388.000
26.15370 2341.000
26.17398 2222.000
26.19426 2104.000
26.21454 2008.000
26.23482 1883.000
26.25510 1736.000
26.27538 1712.000
26.29566 1555.000
26.31594 1503.000
26.33622 1473.000
26.35650 1468.000
26.37678 1426.000
26.39706 1410.000
26.41734 1455.000
26.43762 1513.000
26.45790 1537.000
26.47818 1527.000
26.49846 1670.000
26.51874 1743.000
26.53902 1761.000
26.55930 1905.000
26.57958 1972.000
26.59986 1995.000
26.62014 2029.000
26.64042 2129.000
26.66070 2119.000
26.68098 2030.000
26.70126 1958.000
26.72154 1929.000
26.74182 1822.000
26.76210 1847.000
26.78238 1764.000
26.80266 1685.000
26.82294 1653.000
26.84322 1683.000
26.86350 1710.000
26.88378 1705.000
26.90406 1751.000
26.92434 1901.000
26.94462 1972.000
26.96490 2066.000
26.98518 2222.000
27.00546 2224.000
27.02574 2232.000
27.04602 2336.000
27.06630 2333.000
27.08658 2200.000
27.10686 2190.000
27.12714 2047.000
27.14742 2020.000
27.16770 1930.000
27.18798 1878.000
27.20826 1755.000
27.22854 1747.000
27.24882 1626.000
27.26910 1541.000
27.28938 1526.000
27.30966 1489.000
27.32994 1494.000
27.35022 1490.000
27.37050 1417.000
27.39078 1558.000
27.41106 1545.000
27.43134 1532.000
27.45162 1604.000
27.47190 1648.000
27.49218 1677.000
27.51246 1760.000
27.53274 1746.000
27.55302 1679.000
27.57330 1649.000
27.59358 1560.000
27.61386 1534.000
27.63414 1457.000
27.65442 1328.000
27.67470 1202.000
27.69498 1062.000
27.71526 1010.000
27.73555 937.000
27.75583 892.000
27.77611 813.000
27.79639 761.000
27.81667 717.000
27.83695 759.000
27.85723 712.000
27.87751 760.000
27.89779 762.000
27.91807 713.000
27.93835 712.000
27.95863 663.000
27.97891 661.000
27.99919 713.000
28.01947 682.000
28.03975 697.000
28.06003 703.000
28.08031 709.000
28.10059 756.000
28.12087 689.000
28.14115 731.000
28.16143 713.000
28.18171 701.000
28.20199 777.000
28.22227 790.000
28.24255 802.000
28.26283 879.000
28.28311 779.000
28.30339 891.000
28.32367 948.000
28.34395 957.000
28.36423 1089.000
28.38451 1047.000
28.40479 1138.000
28.42507 1188.000
28.44535 1248.000
28.46563 1260.000
28.48591 1397.000
28.50619 1402.000
28.52647 1521.000
28.54675 1531.000
28.56703 1518.000
28.58731 1521.000
28.60759 1531.000
28.62787 1561.000
28.64815 1514.000
28.66843 1461.000
28.68871 1432.000
28.70899 1384.000
28.72927 1276.000
28.74955 1271.000
28.76983 1201.000
28.79011 1038.000
28.81039 1088.000
28.83067 1067.000
28.85095 1050.000
28.87123 975.000
28.89151 1018.000
28.91179 997.000
28.93207 1020.000
28.95235 1111.000
28.97263 1149.000
28.99291 1170.000
29.01319 1222.000
29.03347 1264.000
29.05375 1342.000
29.07403 1335.000
29.09431 1439.000
29.11459 1455.000
29.13487 1493.000
29.15515 1441.000
29.17543 1418.000
29.19571 1373.000
29.21599 1321.000
29.23627 1242.000
29.25655 1197.000
29.27683 1228.000
29.29711 1200.000
29.31739 1197.000
29.33767 1170.000
29.35795 1168.000
29.37823 1295.000
29.39851 1280.000
29.41879 1260.000
29.43907 1245.000
29.45935 1223.000
29.47963 1212.000
29.49991 1168.000
29.52019 1145.000
29.54047 1090.000
29.56075 1122.000
29.58103 1113.000
29.60131 1103.000
29.62159 1141.000
29.64188 1150.000
29.66216 1144.000
29.68244 1142.000
29.70272 1203.000
29.72300 1193.000
29.74328 1224.000
29.76356 1285.000
29.78384 1278.000
29.80412 1338.000
29.82440 1357.000
29.84468 1327.000
29.86496 1330.000
29.88524 1349.000
29.90552 1368.000
29.92580 1452.000
29.94608 1344.000
29.96636 1372.000
29.98664 1431.000
30.00692 1359.000
30.02720 1373.000
30.04748 1390.000
30.06776 1305.000
30.08804 1269.000
30.10832 1272.000
30.12860 1290.000
30.14888 1294.000
30.16916 1251.000
30.18944 1127.000
30.20972 1062.000
30.23000 1051.000
30.25028 947.000
30.27056 970.000
30.29084 940.000
30.31112 899.000
30.33140 878.000
30.35168 970.000
30.37196 990.000
30.39224 1030.000
30.41252 1085.000
30.43280 1060.000
30.45308 1215.000
30.47336 1149.000
30.49364 1146.000
30.51392 1109.000
30.53420 1102.000
30.55448 1042.000
30.57476 1055.000
30.59504 924.000
30.61532 903.000
30.63560 879.000
30.65588 837.000
30.67616 726.000
30.69644 721.000
30.71672 671.000
30.73700 690.000
30.75728 673.000
30.77756 610.000
30.79784 683.000
30.81812 631.000
30.83840 659.000
30.85868 673.000
30.87896 649.000
30.89924 679.000
30.91952 679.000
30.93980 644.000
30.96008 734.000
30.98036 721.000
31.00064 741.000
31.02092 751.000
31.04120 837.000
31.06148 849.000
31.08176 922.000
31.10204 976.000
31.12232 940.000
31.14260 995.000
31.16288 963.000
31.18316 976.000
31.20344 1019.000
31.22372 1014.000
31.24400 997.000
31.26428 956.000
31.28456 935.000
31.30484 912.000
31.32512 907.000
31.34540 861.000
31.36568 773.000
31.38596 773.000
31.40624 745.000
31.42652 701.000
31.44680 714.000
31.46708 695.000
31.48736 689.000
31.50764 661.000
31.52792 658.000
31.54821 655.000
31.56849 699.000
31.58877 704.000
31.60905 695.000
31.62933 737.000
31.64961 774.000
31.66989 776.000
31.69017 769.000
31.71045 831.000
31.73073 744.000
31.75101 833.000
31.77129 812.000
31.79157 849.000
31.81185 882.000
31.83213 876.000
31.85241 857.000
31.87269 911.000
31.89297 891.000
31.91325 882.000
31.93353 931.000
31.95381 871.000
31.97409 895.000
31.99437 926.000
32.01465 938.000
32.03493 963.000
32.05521 984.000
32.07549 888.000
32.09577 868.000
32.11605 856.000
32.13633 893.000
32.15661 851.000
32.17689 818.000
32.19717 854.000
32.21745 849.000
32.23773 858.000
32.25801 763.000
32.27829 754.000
32.29857 805.000
32.31885 738.000
32.33913 803.000
32.35941 734.000
32.37969 731.000
32.39997 730.000
32.42025 708.000
32.44053 717.000
32.46081 766.000
32.48109 709.000
32.50137 742.000
32.52165 677.000
32.54193 682.000
32.56221 650.000
32.58249 646.000
32.60277 654.000
32.62305 630.000
32.64333 664.000
32.66361 653.000
32.68389 610.000
32.70417 649.000
32.72445 647.000
32.74473 703.000
32.76501 712.000
32.78529 715.000
32.80557 718.000
32.82585 708.000
32.84613 749.000
32.86641 729.000
32.88669 724.000
32.90697 704.000
32.92725 750.000
32.94753 767.000
32.96781 788.000
32.98809 869.000
33.00837 853.000
33.02865 848.000
33.04893 886.000
33.06921 901.000
33.08949 899.000
33.10977 845.000
33.13005 842.000
33.15033 838.000
33.17061 860.000
33.19089 789.000
33.21117 799.000
33.23145 832.000
33.25173 771.000
33.27201 824.000
33.29229 907.000
33.31257 928.000
33.33285 932.000
33.35313 979.000
33.37341 956.000
33.39369 955.000
33.41397 974.000
33.43425 987.000
33.45454 996.000
33.47482 969.000
33.49510 897.000
33.51538 868.000
33.53566 822.000
33.55594 804.000
33.57622 731.000
33.59650 758.000
33.61678 723.000
33.63706 707.000
33.65734 728.000
33.67762 702.000
33.69790 717.000
33.71818 655.000
33.73846 655.000
33.75874 658.000
33.77902 674.000
33.79930 661.000
33.81958 677.000
33.83986 665.000
33.86014 644.000
33.88042 639.000
33.90070 674.000
33.92098 692.000
33.94126 750.000
33.96154 716.000
33.98182 744.000
34.00210 774.000
34.02238 740.000
34.04266 840.000
34.06294 810.000
34.08322 813.000
34.10350 772.000
34.12378 813.000
34.14406 822.000
34.16434 873.000
34.18462 827.000
34.20490 851.000
34.22518 851.000
34.24546 846.000
34.26574 882.000
34.28602 916.000
34.30630 924.000
34.32658 905.000
34.34686 922.000
34.36714 938.000
34.38742 906.000
34.40770 932.000
34.42798 1013.000
34.44826 982.000
34.46854 1004.000
34.48882 1093.000
34.50910 1178.000
34.52938 1271.000
34.54966 1365.000
34.56994 1376.000
34.59022 1354.000
34.61050 1545.000
34.63078 1633.000
34.65106 1593.000
34.67134 1617.000
34.69162 1500.000
34.71190 1491.000
34.73218 1392.000
34.75246 1379.000
34.77274 1300.000
34.79302 1175.000
34.81330 1148.000
34.83358 1129.000
34.85386 1094.000
34.87414 1069.000
34.89442 1048.000
34.91470 1159.000
34.93498 1117.000
34.95526 1178.000
34.97554 1147.000
34.99582 1279.000
35.01610 1158.000
35.03638 1247.000
35.05666 1167.000
35.07694 1159.000
35.09722 1017.000
35.11750 1112.000
35.13778 1049.000
35.15806 947.000
35.17834 969.000
35.19862 868.000
35.21890 904.000
35.23918 854.000
35.25946 867.000
35.27974 797.000
35.30002 828.000
35.32030 745.000
35.34058 792.000
35.36087 756.000
35.38115 752.000
35.40143 735.000
35.42171 744.000
35.44199 764.000
35.46227 760.000
35.48255 790.000
35.50283 746.000
35.52311 785.000
35.54339 838.000
35.56367 786.000
35.58395 780.000
35.60423 760.000
35.62451 851.000
35.64479 822.000
35.66507 739.000
35.68535 752.000
35.70563 784.000
35.72591 745.000
35.74619 744.000
35.76647 687.000
35.78675 689.000
35.80703 711.000
35.82731 680.000
35.84759 656.000
35.86787 604.000
35.88815 643.000
35.90843 638.000
35.92871 592.000
35.94899 590.000
35.96927 640.000
35.98955 601.000
36.00983 577.000
36.03011 652.000
36.05039 610.000
36.07067 616.000
36.09095 607.000
36.11123 633.000
36.13151 682.000
36.15179 633.000
36.17207 666.000
36.19235 674.000
36.21263 724.000
36.23291 710.000
36.25319 777.000
36.27347 728.000
36.29375 767.000
36.31403 734.000
36.33431 808.000
36.35459 791.000
36.37487 803.000
36.39515 835.000
36.41543 731.000
36.43571 787.000
36.45599 849.000
36.47627 831.000
36.49655 830.000
36.51683 843.000
36.53711 853.000
36.55739 861.000
36.57767 886.000
36.59795 956.000
36.61823 970.000
36.63851 971.000
36.65879 997.000
36.67907 980.000
36.69935 1018.000
36.71963 1109.000
36.73991 1036.000
36.76019 1080.000
36.78047 1092.000
36.80075 1156.000
36.82103 1159.000
36.84131 1141.000
36.86159 1074.000
36.88187 1180.000
36.90215 1121.000
36.92243 1034.000
36.94271 1021.000
36.96299 1052.000
36.98327 991.000
37.00355 977.000
37.02383 863.000
37.04411 900.000
37.06439 865.000
37.08467 867.000
37.10495 876.000
37.12523 884.000
37.14551 865.000
37.16579 939.000
37.18607 837.000
37.20635 826.000
37.22663 863.000
37.24691 843.000
37.26720 825.000
37.28748 822.000
37.30776 835.000
37.32804 773.000
37.34832 820.000
37.36860 789.000
37.38888 745.000
37.40916 713.000
37.42944 704.000
37.44972 707.000
37.47000 730.000
37.49028 739.000
37.51056 678.000
37.53084 720.000
37.55112 676.000
37.57140 661.000
37.59168 700.000
37.61196 707.000
37.63224 683.000
37.65252 776.000
37.67280 736.000
37.69308 718.000
37.71336 684.000
37.73364 737.000
37.75392 711.000
37.77420 789.000
37.79448 740.000
37.81476 771.000
37.83504 757.000
37.85532 779.000
37.87560 809.000
37.89588 786.000
37.91616 875.000
37.93644 846.000
37.95672 913.000
37.97700 919.000
37.99728 906.000
38.01756 927.000
38.03784 908.000
38.05812 969.000
38.07840 1002.000
38.09868 924.000
38.11896 894.000
38.13924 947.000
38.15952 843.000
38.17980 812.000
38.20008 843.000
38.22036 853.000
38.24064 813.000
38.26092 704.000
38.28120 742.000
38.30148 727.000
38.32176 709.000
38.34204 771.000
38.36232 698.000
38.38260 745.000
38.40288 768.000
38.42316 758.000
38.44344 750.000
38.46372 801.000
38.48400 747.000
38.50428 775.000
38.52456 775.000
38.54484 761.000
38.56512 757.000
38.58540 748.000
38.60568 739.000
38.62596 703.000
38.64624 700.000
38.66652 679.000
38.68680 717.000
38.70708 652.000
38.72736 727.000
38.74764 641.000
38.76792 649.000
38.78820 647.000
38.80848 574.000
38.82876 601.000
38.84904 633.000
38.86932 633.000
38.88960 674.000
38.90988 680.000
38.93016 597.000
38.95044 639.000
38.97072 603.000
38.99100 605.000
39.01128 669.000
39.03156 607.000
39.05184 656.000
39.07212 655.000
39.09240 631.000
39.11268 617.000
39.13296 588.000
39.15324 654.000
39.17353 655.000
39.19381 685.000
39.21409 655.000
39.23437 672.000
39.25465 690.000
39.27493 656.000
39.29521 651.000
39.31549 669.000
39.33577 700.000
39.35605 720.000
39.37633 681.000
39.39661 751.000
39.41689 696.000
39.43717 711.000
39.45745 757.000
39.47773 747.000
39.49801 773.000
39.51829 812.000
39.53857 766.000
39.55885 798.000
39.57913 870.000
39.59941 842.000
39.61969 821.000
39.63997 838.000
39.66025 871.000
39.68053 863.000
39.70081 896.000
39.72109 907.000
39.74137 813.000
39.76165 839.000
39.78193 828.000
39.80221 796.000
39.82249 801.000
39.84277 794.000
39.86305 741.000
39.88333 771.000
39.90361 789.000
39.92389 729.000
39.94417 732.000
39.96445 728.000
39.98473 714.000
40.00501 739.000
40.02529 754.000
40.04557 782.000
40.06585 788.000
40.08613 854.000
40.10641 828.000
40.12669 872.000
40.14697 900.000
40.16725 993.000
40.18753 926.000
40.20781 972.000
40.22809 1024.000
40.24837 1036.000
40.26865 995.000
40.28893 1048.000
40.30921 1013.000
40.32949 1044.000
40.34977 967.000
40.37005 979.000
40.39033 985.000
40.41061 988.000
40.43089 959.000
40.45117 962.000
40.47145 926.000
40.49173 922.000
40.51201 930.000
40.53229 946.000
40.55257 882.000
40.57285 910.000
40.59313 878.000
40.61341 807.000
40.63369 818.000
40.65397 723.000
40.67425 762.000
40.69453 772.000
40.71481 726.000
40.73509 718.000
40.75537 690.000
40.77565 759.000
40.79593 690.000
40.81621 628.000
40.83649 668.000
40.85677 684.000
40.87705 656.000
40.89733 623.000
40.91761 633.000
40.93789 673.000
40.95817 675.000
40.97845 742.000
40.99873 724.000
41.01901 672.000
41.03929 699.000
41.05957 738.000
41.07986 726.000
41.10014 710.000
41.12042 674.000
41.14070 680.000
41.16098 671.000
41.18126 635.000
41.20154 705.000
41.22182 671.000
41.24210 711.000
41.26238 721.000
41.28266 712.000
41.30294 764.000
41.32322 755.000
41.34350 767.000
41.36378 758.000
41.38406 840.000
41.40434 863.000
41.42462 823.000
41.44490 896.000
41.46518 832.000
41.48546 834.000
41.50574 890.000
41.52602 838.000
41.54630 943.000
41.56658 873.000
41.58686 866.000
41.60714 849.000
41.62742 874.000
41.64770 832.000
41.66798 827.000
41.68826 913.000
41.70854 884.000
41.72882 897.000
41.74910 901.000
41.76938 951.000
41.78966 958.000
41.80994 954.000
41.83022 986.000
41.85050 993.000
41.87078 936.000
41.89106 955.000
41.91134 905.000
41.93162 892.000
41.95190 827.000
41.97218 808.000
41.99246 817.000
42.01274 775.000
42.03302 754.000
42.05330 701.000
42.07358 680.000
42.09386 668.000
42.11414 596.000
42.13442 649.000
42.15470 631.000
42.17498 619.000
42.19526 646.000
42.21554 634.000
42.23582 630.000
42.25610 634.000
42.27638 615.000
42.29666 623.000
42.31694 612.000
42.33722 597.000
42.35750 647.000
42.37778 622.000
42.39806 580.000
42.41834 628.000
42.43862 610.000
42.45890 580.000
42.47918 616.000
42.49946 588.000
42.51974 543.000
42.54002 625.000
42.56030 510.000
42.58058 520.000
42.60086 551.000
42.62114 588.000
42.64142 556.000
42.66170 572.000
42.68198 521.000
42.70226 566.000
42.72254 609.000
42.74282 538.000
42.76310 570.000
42.78338 562.000
42.80366 606.000
42.82394 552.000
42.84422 582.000
42.86450 559.000
42.88478 528.000
42.90506 571.000
42.92534 605.000
42.94562 601.000
42.96590 619.000
42.98619 573.000
43.00647 615.000
43.02675 582.000
43.04703 588.000
43.06731 649.000
43.08759 686.000
43.10787 589.000
43.12815 619.000
43.14843 614.000
43.16871 650.000
43.18899 651.000
43.20927 706.000
43.22955 690.000
43.24983 721.000
43.27011 768.000
43.29039 779.000
43.31067 805.000
43.33095 795.000
43.35123 833.000
43.37151 828.000
43.39179 743.000
43.41207 818.000
43.43235 773.000
43.45263 824.000
43.47291 806.000
43.49319 827.000
43.51347 828.000
43.53375 866.000
43.55403 742.000
43.57431 785.000
43.59459 807.000
43.61487 797.000
43.63515 758.000
43.65543 743.000
43.67571 804.000
43.69599 782.000
43.71627 826.000
43.73655 741.000
43.75683 777.000
43.77711 827.000
43.79739 836.000
43.81767 819.000
43.83795 855.000
43.85823 848.000
43.87851 854.000
43.89879 839.000
43.91907 852.000
43.93935 925.000
43.95963 800.000
43.97991 957.000
44.00019 885.000
44.02047 837.000
44.04075 876.000
44.06103 904.000
44.08131 845.000
44.10159 849.000
44.12187 868.000
44.14215 845.000
44.16243 803.000
44.18271 820.000
44.20299 794.000
44.22327 784.000
44.24355 816.000
44.26383 760.000
44.28411 753.000
44.30439 709.000
44.32467 732.000
44.34495 719.000
44.36523 727.000
44.38551 690.000
44.40579 655.000
44.42607 661.000
44.44635 697.000
44.46663 645.000
44.48691 665.000
44.50719 660.000
44.52747 661.000
44.54775 619.000
44.56803 636.000
44.58831 655.000
44.60859 614.000
44.62887 645.000
44.64915 624.000
44.66943 641.000
44.68971 678.000
44.70999 634.000
44.73027 632.000
44.75055 678.000
44.77083 643.000
44.79111 656.000
44.81139 665.000
44.83167 640.000
44.85195 685.000
44.87223 673.000
44.89251 670.000
44.91280 696.000
44.93308 692.000
44.95336 668.000
44.97364 709.000
44.99392 706.000
45.01420 682.000
45.03448 672.000
45.05476 682.000
45.07504 720.000
45.09532 733.000
45.11560 663.000
45.13588 630.000
45.15616 676.000
45.17644 596.000
45.19672 601.000
45.21700 682.000
45.23728 587.000
45.25756 620.000
45.27784 640.000
45.29812 644.000
45.31840 592.000
45.33868 623.000
45.35896 597.000
45.37924 627.000
45.39952 660.000
45.41980 627.000
45.44008 632.000
45.46036 612.000
45.48064 622.000
45.50092 607.000
45.52120 657.000
45.54148 700.000
45.56176 640.000
45.58204 629.000
45.60232 648.000
45.62260 637.000
45.64288 638.000
45.66316 672.000
45.68344 670.000
45.70372 631.000
45.72400 661.000
45.74428 671.000
45.76456 626.000
45.78484 648.000
45.80512 682.000
45.82540 703.000
45.84568 655.000
45.86596 693.000
45.88624 665.000
45.90652 641.000
45.92680 696.000
45.94708 671.000
45.96736 658.000
45.98764 690.000
46.00792 623.000
46.02820 626.000
46.04848 605.000
46.06876 607.000
46.08904 649.000
46.10932 625.000
46.12960 626.000
46.14988 617.000
46.17016 657.000
46.19044 610.000
46.21072 659.000
46.23100 616.000
46.25128 604.000
46.27156 681.000
46.29184 652.000
46.31212 692.000
46.33240 634.000
46.35268 617.000
46.37296 646.000
46.39324 654.000
46.41352 651.000
46.43380 644.000
46.45408 647.000
46.47436 657.000
46.49464 686.000
46.51492 713.000
46.53520 702.000
46.55548 703.000
46.57576 673.000
46.59604 674.000
46.61632 719.000
46.63660 664.000
46.65688 738.000
46.67716 677.000
46.69744 686.000
46.71772 712.000
46.73800 715.000
46.75828 663.000
46.77856 710.000
46.79884 686.000
46.81913 656.000
46.83941 720.000
46.85969 647.000
46.87997 678.000
46.90025 649.000
46.92053 655.000
46.94081 586.000
46.96109 597.000
46.98137 612.000
47.00165 628.000
47.02193 631.000
47.04221 615.000
47.06249 597.000
47.08277 675.000
47.10305 616.000
47.12333 587.000
47.14361 655.000
47.16389 662.000
47.18417 637.000
47.20445 619.000
47.22473 646.000
47.24501 632.000
47.26529 648.000
47.28557 650.000
47.30585 694.000
47.32613 698.000
47.34641 680.000
47.36669 756.000
47.38697 718.000
47.40725 754.000
47.42753 734.000
47.44781 716.000
47.46809 719.000
47.48837 689.000
47.50865 734.000
47.52893 712.000
47.54921 763.000
47.56949 764.000
47.58977 690.000
47.61005 686.000
47.63033 656.000
47.65061 693.000
47.67089 735.000
47.69117 665.000
47.71145 651.000
47.73173 680.000
47.75201 676.000
47.77229 678.000
47.79257 667.000
47.81285 683.000
47.83313 645.000
47.85341 655.000
47.87369 623.000
47.89397 663.000
47.91425 620.000
47.93453 626.000
47.95481 647.000
47.97509 622.000
47.99537 663.000
48.01565 573.000
48.03593 634.000
48.05621 622.000
48.07649 630.000
48.09677 587.000
48.11705 629.000
48.13733 558.000
48.15761 640.000
48.17789 604.000
48.19817 556.000
48.21845 554.000
48.23873 556.000
48.25901 597.000
48.27929 583.000
48.29957 595.000
48.31985 529.000
48.34013 528.000
48.36041 567.000
48.38069 576.000
48.40097 539.000
48.42125 576.000
48.44153 554.000
48.46181 562.000
48.48209 543.000
48.50237 542.000
48.52265 559.000
48.54293 563.000
48.56321 559.000
48.58349 560.000
48.60377 564.000
48.62405 579.000
48.64433 593.000
48.66461 625.000
48.68489 562.000
48.70517 545.000
48.72546 573.000
48.74574 601.000
48.76602 586.000
48.78630 536.000
48.80658 547.000
48.82686 502.000
48.84714 578.000
48.86742 529.000
48.88770 518.000
48.90798 504.000
48.92826 500.000
48.94854 528.000
48.96882 537.000
48.98910 490.000
49.00938 502.000
49.02966 533.000
49.04994 524.000
49.07022 545.000
49.09050 472.000
49.11078 530.000
49.13106 541.000
49.15134 561.000
49.17162 550.000
49.19190 588.000
49.21218 519.000
49.23246 536.000
49.25274 552.000
49.27302 541.000
49.29330 511.000
49.31358 548.000
49.33386 551.000
49.35414 535.000
49.37442 543.000
49.39470 561.000
49.41498 571.000
49.43526 537.000
49.45554 563.000
49.47582 535.000
49.49610 553.000
49.51638 539.000
49.53666 605.000
49.55694 542.000
49.57722 558.000
49.59750 565.000
49.61778 541.000
49.63806 582.000
49.65834 510.000
49.67862 545.000
49.69890 638.000
49.71918 581.000
49.73946 537.000
49.75974 573.000
49.78002 574.000
49.80030 591.000
49.82058 566.000
49.84086 559.000
49.86114 548.000
49.88142 588.000
49.90170 567.000
49.92198 580.000
49.94226 578.000
49.96254 582.000
49.98282 582.000
50.00310 550.000
