5.00155 802.000
5.02183 812.000
5.04211 887.000
5.06239 806.000
5.08267 827.000
5.10295 796.000
5.12323 779.000
5.14351 766.000
5.16379 770.000
5.18407 817.000
5.20435 809.000
5.22463 698.000
5.24491 760.000
5.26519 759.000
5.28547 736.000
5.30575 757.000
5.32603 723.000
5.34631 755.000
5.36659 686.000
5.38687 675.000
5.40715 693.000
5.42743 690.000
5.44771 651.000
5.46799 701.000
5.48827 621.000
5.50855 649.000
5.52883 659.000
5.54911 633.000
5.56939 667.000
5.58967 654.000
5.60995 604.000
5.63023 594.000
5.65051 623.000
5.67079 554.000
5.69107 605.000
5.71135 566.000
5.73163 574.000
5.75191 567.000
5.77219 569.000
5.79247 556.000
5.81275 544.000
5.83303 553.000
5.85331 529.000
5.87359 543.000
5.89387 535.000
5.91415 511.000
5.93443 568.000
5.95471 492.000
5.97499 497.000
5.99527 490.000
6.01555 494.000
6.03583 527.000
6.05611 525.000
6.07639 512.000
6.09667 511.000
6.11695 460.000
6.13723 509.000
6.15751 485.000
6.17779 542.000
6.19807 503.000
6.21835 548.000
6.23863 573.000
6.25891 552.000
6.27919 576.000
6.29947 612.000
6.31975 592.000
6.34003 655.000
6.36031 711.000
6.38059 735.000
6.40087 754.000
6.42115 787.000
6.44143 747.000
6.46171 721.000
6.48199 638.000
6.50227 623.000
6.52255 571.000
6.54283 494.000
6.56311 517.000
6.58339 538.000
6.60367 572.000
6.62395 544.000
6.64423 572.000
6.66451 567.000
6.68479 645.000
6.70507 775.000
6.72536 854.000
6.74564 958.000
6.76592 1072.000
6.78620 1226.000
6.80648 1232.000
6.82676 1332.000
6.84704 1169.000
6.86732 1051.000
6.88760 901.000
6.90788 716.000
6.92816 608.000
6.94844 475.000
6.96872 445.000
6.98900 420.000
7.00928 443.000
7.02956 415.000
7.04984 372.000
7.07012 411.000
7.09040 387.000
7.11068 411.000
7.13096 358.000
7.15124 376.000
7.17152 402.000
7.19180 379.000
7.21208 369.000
7.23236 366.000
7.25264 383.000
7.27292 349.000
7.29320 408.000
7.31348 353.000
7.33376 373.000
7.35404 352.000
7.37432 321.000
7.39460 336.000
7.41488 364.000
7.43516 345.000
7.45544 341.000
7.47572 353.000
7.49600 350.000
7.51628 317.000
7.53656 342.000
7.55684 353.000
7.57712 331.000
7.59740 332.000
7.61768 321.000
7.63796 331.000
7.65824 361.000
7.67852 334.000
7.69880 355.000
7.71908 358.000
7.73936 351.000
7.75964 289.000
7.77992 318.000
7.80020 337.000
7.82048 321.000
7.84076 389.000
7.86104 333.000
7.88132 371.000
7.90160 375.000
7.92188 356.000
7.94216 349.000
7.96244 309.000
7.98272 371.000
8.00300 373.000
8.02328 350.000
8.04356 346.000
8.06384 431.000
8.08412 376.000
8.10440 370.000
8.12468 400.000
8.14496 437.000
8.16524 462.000
8.18552 427.000
8.20580 511.000
8.22608 521.000
8.24636 623.000
8.26664 752.000
8.28692 812.000
8.30720 998.000
8.32748 1175.000
8.34776 1362.000
8.36804 1539.000
8.38832 1682.000
8.40860 1716.000
8.42888 1524.000
8.44916 1361.000
8.46944 1325.000
8.48972 1379.000
8.51000 1555.000
8.53028 1917.000
8.55056 2368.000
8.57084 2826.000
8.59112 3475.000
8.61140 3819.000
8.63168 4178.000
8.65197 3871.000
8.67225 3509.000
8.69253 2764.000
8.71281 2101.000
8.73309 1595.000
8.75337 1211.000
8.77365 899.000
8.79393 682.000
8.81421 604.000
8.83449 608.000
8.85477 593.000
8.87505 539.000
8.89533 553.000
8.91561 493.000
8.93589 449.000
8.95617 454.000
8.97645 441.000
8.99673 445.000
9.01701 465.000
9.03729 434.000
9.05757 401.000
9.07785 426.000
9.09813 423.000
9.11841 389.000
9.13869 403.000
9.15897 423.000
9.17925 426.000
9.19953 438.000
9.21981 446.000
9.24009 460.000
9.26037 501.000
9.28065 557.000
9.30093 643.000
9.32121 710.000
9.34149 801.000
9.36177 984.000
9.38205 1159.000
9.40233 1361.000
9.42261 1748.000
9.44289 2090.000
9.46317 2220.000
9.48345 2414.000
9.50373 2310.000
9.52401 2080.000
9.54429 1678.000
9.56457 1327.000
9.58485 1032.000
9.60513 824.000
9.62541 750.000
9.64569 714.000
9.66597 761.000
9.68625 816.000
9.70653 870.000
9.72681 973.000
9.74709 1207.000
9.76737 1489.000
9.78765 1866.000
9.80793 2216.000
9.82821 2583.000
9.84849 2805.000
9.86877 2762.000
9.88905 2502.000
9.90933 2048.000
9.92961 1596.000
9.94989 1157.000
9.97017 937.000
9.99045 746.000
10.01073 640.000
10.03101 568.000
10.05129 541.000
10.07157 498.000
10.09185 439.000
10.11213 448.000
10.13241 426.000
10.15269 417.000
10.17297 381.000
10.19325 384.000
10.21353 379.000
10.23381 390.000
10.25409 401.000
10.27437 398.000
10.29465 404.000
10.31493 399.000
10.33521 361.000
10.35549 397.000
10.37577 466.000
10.39605 397.000
10.41633 411.000
10.43661 463.000
10.45689 469.000
10.47717 457.000
10.49745 458.000
10.51773 489.000
10.53801 519.000
10.55830 487.000
10.57858 474.000
10.59886 462.000
10.61914 460.000
10.63942 420.000
10.65970 431.000
10.67998 404.000
10.70026 411.000
10.72054 418.000
10.74082 439.000
10.76110 445.000
10.78138 493.000
10.80166 565.000
10.82194 665.000
10.84222 833.000
10.86250 947.000
10.88278 1183.000
10.90306 1448.000
10.92334 1677.000
10.94362 1732.000
10.96390 1632.000
10.98418 1436.000
11.00446 1133.000
11.02474 879.000
11.04502 705.000
11.06530 505.000
11.08558 491.000
11.10586 476.000
11.12614 387.000
11.14642 361.000
11.16670 362.000
11.18698 381.000
11.20726 347.000
11.22754 347.000
11.24782 350.000
11.26810 359.000
11.28838 314.000
11.30866 358.000
11.32894 303.000
11.34922 292.000
11.36950 306.000
11.38978 330.000
11.41006 321.000
11.43034 333.000
11.45062 318.000
11.47090 321.000
11.49118 322.000
11.51146 368.000
11.53174 316.000
11.55202 318.000
11.57230 311.000
11.59258 309.000
11.61286 286.000
11.63314 316.000
11.65342 328.000
11.67370 301.000
11.69398 318.000
11.71426 321.000
11.73454 308.000
11.75482 284.000
11.77510 289.000
11.79538 296.000
11.81566 316.000
11.83594 312.000
11.85622 283.000
11.87650 297.000
11.89678 301.000
11.91706 318.000
11.93734 314.000
11.95762 319.000
11.97790 279.000
11.99818 286.000
12.01846 279.000
12.03874 321.000
12.05902 299.000
12.07930 287.000
12.09958 274.000
12.11986 304.000
12.14014 281.000
12.16042 292.000
12.18070 310.000
12.20098 280.000
12.22126 313.000
12.24154 301.000
12.26182 316.000
12.28210 320.000
12.30238 348.000
12.32266 343.000
12.34294 348.000
12.36322 333.000
12.38350 387.000
12.40378 358.000
12.42406 339.000
12.44434 321.000
12.46463 331.000
12.48491 280.000
12.50519 330.000
12.52547 323.000
12.54575 297.000
12.56603 279.000
12.58631 275.000
12.60659 322.000
12.62687 304.000
12.64715 314.000
12.66743 282.000
12.68771 297.000
12.70799 322.000
12.72827 281.000
12.74855 317.000
12.76883 309.000
12.78911 350.000
12.80939 326.000
12.82967 333.000
12.84995 332.000
12.87023 358.000
12.89051 383.000
12.91079 373.000
12.93107 393.000
12.95135 447.000
12.97163 485.000
12.99191 461.000
13.01219 442.000
13.03247 441.000
13.05275 418.000
13.07303 424.000
13.09331 458.000
13.11359 458.000
13.13387 515.000
13.15415 525.000
13.17443 588.000
13.19471 672.000
13.21499 709.000
13.23527 785.000
13.25555 807.000
13.27583 746.000
13.29611 781.000
13.31639 671.000
13.33667 666.000
13.35695 610.000
13.37723 577.000
13.39751 585.000
13.41779 579.000
13.43807 569.000
13.45835 567.000
13.47863 623.000
13.49891 682.000
13.51919 739.000
13.53947 834.000
13.55975 883.000
13.58003 971.000
13.60031 1198.000
13.62059 1395.000
13.64087 1577.000
13.66115 1865.000
13.68143 2036.000
13.70171 2139.000
13.72199 2143.000
13.74227 2148.000
13.76255 2086.000
13.78283 2064.000
13.80311 1912.000
13.82339 1741.000
13.84367 1507.000
13.86395 1318.000
13.88423 944.000
13.90451 776.000
13.92479 661.000
13.94507 562.000
13.96535 481.000
13.98563 448.000
14.00591 425.000
14.02619 440.000
14.04647 406.000
14.06675 361.000
14.08703 327.000
14.10731 353.000
14.12759 416.000
14.14787 363.000
14.16815 375.000
14.18843 341.000
14.20871 367.000
14.22899 330.000
14.24927 350.000
14.26955 318.000
14.28983 331.000
14.31011 325.000
14.33039 366.000
14.35067 335.000
14.37096 336.000
14.39124 376.000
14.41152 350.000
14.43180 368.000
14.45208 353.000
14.47236 372.000
14.49264 413.000
14.51292 422.000
14.53320 393.000
14.55348 412.000
14.57376 439.000
14.59404 518.000
14.61432 591.000
14.63460 654.000
14.65488 742.000
14.67516 684.000
14.69544 715.000
14.71572 693.000
14.73600 645.000
14.75628 622.000
14.77656 638.000
14.79684 665.000
14.81712 662.000
14.83740 703.000
14.85768 804.000
14.87796 806.000
14.89824 911.000
14.91852 828.000
14.93880 796.000
14.95908 728.000
14.97936 619.000
14.99964 549.000
15.01992 478.000
15.04020 431.000
15.06048 413.000
15.08076 409.000
15.10104 363.000
15.12132 372.000
15.14160 382.000
15.16188 358.000
15.18216 355.000
15.20244 390.000
15.22272 407.000
15.24300 412.000
15.26328 366.000
15.28356 369.000
15.30384 383.000
15.32412 403.000
15.34440 381.000
15.36468 410.000
15.38496 444.000
15.40524 410.000
15.42552 435.000
15.44580 431.000
15.46608 466.000
15.48636 499.000
15.50664 533.000
15.52692 606.000
15.54720 650.000
15.56748 754.000
15.58776 803.000
15.60804 848.000
15.62832 801.000
15.64860 809.000
15.66888 779.000
15.68916 795.000
15.70944 763.000
15.72972 723.000
15.75000 641.000
15.77028 635.000
15.79056 603.000
15.81084 643.000
15.83112 745.000
15.85140 703.000
15.87168 794.000
15.89196 904.000
15.91224 1068.000
15.93252 1275.000
15.95280 1561.000
15.97308 1894.000
15.99336 2223.000
16.01364 2700.000
16.03392 2953.000
16.05420 3168.000
16.07448 3421.000
16.09476 3260.000
16.11504 2887.000
16.13532 2375.000
16.15560 1887.000
16.17588 1534.000
16.19616 1251.000
16.21644 1065.000
16.23672 950.000
16.25700 987.000
16.27729 1074.000
16.29757 1207.000
16.31785 1359.000
16.33813 1472.000
16.35841 1600.000
16.37869 1749.000
16.39897 1821.000
16.41925 1817.000
16.43953 1641.000
16.45981 1544.000
16.48009 1528.000
16.50037 1412.000
16.52065 1496.000
16.54093 1548.000
16.56121 1783.000
16.58149 2062.000
16.60177 2466.000
16.62205 2775.000
16.64233 3006.000
16.66261 3048.000
16.68289 3107.000
16.70317 2800.000
16.72345 2436.000
16.74373 2053.000
16.76401 1771.000
16.78429 1544.000
16.80457 1566.000
16.82485 1319.000
16.84513 1212.000
16.86541 1097.000
16.88569 946.000
16.90597 832.000
16.92625 832.000
16.94653 803.000
16.96681 781.000
16.98709 859.000
17.00737 875.000
17.02765 1012.000
17.04793 1049.000
17.06821 1280.000
17.08849 1331.000
17.10877 1484.000
17.12905 1458.000
17.14933 1440.000
17.16961 1507.000
17.18989 1511.000
17.21017 1737.000
17.23045 2020.000
17.25073 2317.000
17.27101 2730.000
17.29129 3103.000
17.31157 3655.000
17.33185 3748.000
17.35213 3687.000
17.37241 3368.000
17.39269 2935.000
17.41297 2227.000
17.43325 1882.000
17.45353 1411.000
17.47381 1142.000
17.49409 1022.000
17.51437 964.000
17.53465 979.000
17.55493 1068.000
17.57521 1098.000
17.59549 1290.000
17.61577 1478.000
17.63605 1767.000
17.65633 2241.000
17.67661 2823.000
17.69689 3559.000
17.71717 4359.000
17.73745 4873.000
17.75773 5296.000
17.77801 5212.000
17.79829 4585.000
17.81857 3803.000
17.83885 2900.000
17.85913 2287.000
17.87941 1808.000
17.89969 1512.000
17.91997 1461.000
17.94025 1462.000
17.96053 1408.000
17.98081 1475.000
18.00109 1473.000
18.02137 1587.000
18.04165 1636.000
18.06193 1781.000
18.08221 1929.000
18.10249 2013.000
18.12277 2012.000
18.14305 2022.000
18.16333 2001.000
18.18362 2087.000
18.20390 2272.000
18.22418 2516.000
18.24446 2962.000
18.26474 3463.000
18.28502 4033.000
18.30530 4482.000
18.32558 4962.000
18.34586 5456.000
18.36614 5612.000
18.38642 5520.000
18.40670 5142.000
18.42698 4373.000
18.44726 3522.000
18.46754 2680.000
18.48782 2152.000
18.50810 1592.000
18.52838 1383.000
18.54866 1233.000
18.56894 1185.000
18.58922 1127.000
18.60950 1098.000
18.62978 1192.000
18.65006 1251.000
18.67034 1304.000
18.69062 1317.000
18.71090 1404.000
18.73118 1456.000
18.75146 1530.000
18.77174 1604.000
18.79202 1840.000
18.81230 1953.000
18.83258 2307.000
18.85286 2497.000
18.87314 2708.000
18.89342 2782.000
18.91370 2935.000
18.93398 2817.000
18.95426 2594.000
18.97454 2398.000
18.99482 2167.000
19.01510 1978.000
19.03538 1764.000
19.05566 1655.000
19.07594 1539.000
19.09622 1358.000
19.11650 1177.000
19.13678 1089.000
19.15706 1045.000
19.17734 996.000
19.19762 986.000
19.21790 1026.000
19.23818 1105.000
19.25846 1158.000
19.27874 1237.000
19.29902 1391.000
19.31930 1508.000
19.33958 1550.000
19.35986 1677.000
19.38014 1946.000
19.40042 2108.000
19.42070 2418.000
19.44098 2745.000
19.46126 3012.000
19.48154 3206.000
19.50182 3429.000
19.52210 3334.000
19.54238 3092.000
19.56266 2706.000
19.58294 2397.000
19.60322 2196.000
19.62350 1943.000
19.64378 1924.000
19.66406 1815.000
19.68434 1987.000
19.70462 2140.000
19.72490 2326.000
19.74518 2617.000
19.76546 2723.000
19.78574 2794.000
19.80602 2767.000
19.82630 2591.000
19.84658 2652.000
19.86686 2481.000
19.88714 2674.000
19.90742 2864.000
19.92770 3142.000
19.94798 3484.000
19.96826 3830.000
19.98854 4261.000
20.00882 4566.000
20.02910 4489.000
20.04938 4408.000
20.06966 4184.000
20.08995 3673.000
20.11023 3087.000
20.13051 2631.000
20.15079 2398.000
20.17107 2134.000
20.19135 2032.000
20.21163 1926.000
20.23191 1838.000
20.25219 1984.000
20.27247 2003.000
20.29275 2116.000
20.31303 2194.000
20.33331 2200.000
20.35359 2310.000
20.37387 2252.000
20.39415 2048.000
20.41443 1875.000
20.43471 1689.000
20.45499 1585.000
20.47527 1612.000
20.49555 1802.000
20.51583 1950.000
20.53611 2183.000
20.55639 2557.000
20.57667 2926.000
20.59695 3419.000
20.61723 3529.000
20.63751 3532.000
20.65779 3110.000
20.67807 2750.000
20.69835 2281.000
20.71863 1816.000
20.73891 1482.000
20.75919 1297.000
20.77947 1181.000
20.79975 1137.000
20.82003 1136.000
20.84031 1102.000
20.86059 1200.000
20.88087 1170.000
20.90115 1175.000
20.92143 1186.000
20.94171 1160.000
20.96199 1146.000
20.98227 1045.000
21.00255 1025.000
21.02283 885.000
21.04311 907.000
21.06339 956.000
21.08367 952.000
21.10395 992.000
21.12423 971.000
21.14451 1106.000
21.16479 1175.000
21.18507 1313.000
21.20535 1426.000
21.22563 1473.000
21.24591 1555.000
21.26619 1747.000
21.28647 1825.000
21.30675 2103.000
21.32703 2210.000
21.34731 2597.000
21.36759 2909.000
21.38787 3236.000
21.40815 3557.000
21.42843 3844.000
21.44871 4065.000
21.46899 4372.000
21.48927 4448.000
21.50955 4372.000
21.52983 4473.000
21.55011 4661.000
21.57039 4835.000
21.59067 5149.000
21.61095 5573.000
21.63123 6029.000
21.65151 6349.000
21.67179 6219.000
21.69207 5774.000
21.71235 5343.000
21.73263 4635.000
21.75291 3856.000
21.77319 3036.000
21.79347 2415.000
21.81375 1967.000
21.83403 1537.000
21.85431 1357.000
21.87459 1226.000
21.89487 1285.000
21.91515 1271.000
21.93543 1211.000
21.95571 1351.000
21.97599 1349.000
21.99628 1405.000
22.01656 1495.000
22.03684 1637.000
22.05712 1710.000
22.07740 1927.000
22.09768 2156.000
22.11796 2298.000
22.13824 2507.000
22.15852 2699.000
22.17880 2663.000
22.19908 2531.000
22.21936 2250.000
22.23964 2014.000
22.25992 1826.000
22.28020 1482.000
22.30048 1251.000
22.32076 1086.000
22.34104 978.000
22.36132 950.000
22.38160 948.000
22.40188 914.000
22.42216 1027.000
22.44244 975.000
22.46272 1033.000
22.48300 1058.000
22.50328 1097.000
22.52356 1140.000
22.54384 1137.000
22.56412 1258.000
22.58440 1250.000
22.60468 1238.000
22.62496 1351.000
22.64524 1302.000
22.66552 1417.000
22.68580 1516.000
22.70608 1548.000
22.72636 1563.000
22.74664 1660.000
22.76692 1591.000
22.78720 1544.000
22.80748 1443.000
22.82776 1256.000
22.84804 1234.000
22.86832 1080.000
22.88860 1072.000
22.90888 1005.000
22.92916 1015.000
22.94944 973.000
22.96972 1046.000
22.99000 1035.000
23.01028 1112.000
23.03056 1190.000
23.05084 1079.000
23.07112 1063.000
23.09140 1022.000
23.11168 990.000
23.13196 962.000
23.15224 838.000
23.17252 801.000
23.19280 838.000
23.21308 792.000
23.23336 848.000
23.25364 877.000
23.27392 974.000
23.29420 1057.000
23.31448 1070.000
23.33476 1241.000
23.35504 1397.000
23.37532 1584.000
23.39560 1653.000
23.41588 1797.000
23.43616 1816.000
23.45644 1930.000
23.47672 1797.000
23.49700 1796.000
23.51728 1746.000
23.53756 1542.000
23.55784 1573.000
23.57812 1495.000
23.59840 1441.000
23.61868 1348.000
23.63896 1263.000
23.65924 1336.000
23.67952 1305.000
23.69980 1243.000
23.72008 1224.000
23.74036 1136.000
23.76064 1171.000
23.78092 1087.000
23.80120 1082.000
23.82148 1093.000
23.84176 1122.000
23.86204 1161.000
23.88232 1174.000
23.90261 1302.000
23.92289 1267.000
23.94317 1360.000
23.96345 1330.000
23.98373 1314.000
24.00401 1351.000
24.02429 1324.000
24.04457 1408.000
24.06485 1444.000
24.08513 1321.000
24.10541 1477.000
24.12569 1448.000
24.14597 1466.000
24.16625 1470.000
24.18653 1482.000
24.20681 1373.000
24.22709 1316.000
24.24737 1261.000
24.26765 1195.000
24.28793 1074.000
24.30821 1075.000
24.32849 1080.000
24.34877 1168.000
24.36905 1213.000
24.38933 1291.000
24.40961 1409.000
24.42989 1385.000
24.45017 1347.000
24.47045 1330.000
24.49073 1213.000
24.51101 1104.000
24.53129 1006.000
24.55157 941.000
24.57185 915.000
24.59213 947.000
24.61241 1010.000
24.63269 1045.000
24.65297 1087.000
24.67325 1234.000
24.69353 1304.000
24.71381 1388.000
24.73409 1482.000
24.75437 1453.000
24.77465 1403.000
24.79493 1409.000
24.81521 1289.000
24.83549 1197.000
24.85577 1185.000
24.87605 1106.000
24.89633 1096.000
24.91661 1031.000
24.93689 879.000
24.95717 842.000
24.97745 844.000
24.99773 818.000
25.01801 871.000
25.03829 821.000
25.05857 835.000
25.07885 954.000
25.09913 1012.000
25.11941 1094.000
25.13969 1145.000
25.15997 1379.000
25.18025 1483.000
25.20053 1734.000
25.22081 1904.000
25.24109 2066.000
25.26137 2268.000
25.28165 2518.000
25.30193 2644.000
25.32221 2665.000
25.34249 2723.000
25.36277 2494.000
25.38305 2515.000
25.40333 2176.000
25.42361 2024.000
25.44389 1871.000
25.46417 1670.000
25.48445 1526.000
25.50473 1263.000
25.52501 1267.000
25.54529 1113.000
25.56557 1097.000
25.58585 944.000
25.60613 869.000
25.62641 948.000
25.64669 914.000
25.66697 1003.000
25.68725 1111.000
25.70753 1159.000
25.72781 1212.000
25.74809 1275.000
25.76837 1379.000
25.78865 1341.000
25.80893 1453.000
25.82922 1413.000
25.84950 1241.000
25.86978 1233.000
25.89006 1113.000
25.91034 1126.000
25.93062 1141.000
25.95090 1125.000
25.97118 1151.000
25.99146 1342.000
26.01174 1393.000
26.03202 1451.000
26.05230 1640.000
26.07258 1718.000
26.09286 1766.000
26.11314 1783.000
26.13342 1800.000
26.15370 1646.000
26.17398 1544.000
26.19426 1504.000
26.21454 1327.000
26.23482 1314.000
26.25510 1321.000
26.27538 1224.000
26.29566 1300.000
26.31594 1350.000
26.33622 1385.000
26.35650 1397.000
26.37678 1424.000
26.39706 1287.000
26.41734 1391.000
26.43762 1398.000
26.45790 1356.000
26.47818 1320.000
26.49846 1452.000
26.51874 1263.000
26.53902 1240.000
26.55930 1192.000
26.57958 994.000
26.59986 968.000
26.62014 965.000
26.64042 891.000
26.66070 778.000
26.68098 851.000
26.70126 818.000
26.72154 749.000
26.74182 859.000
26.76210 812.000
26.78238 865.000
26.80266 879.000
26.82294 951.000
26.84322 1024.000
26.86350 1076.000
26.88378 1099.000
26.90406 1171.000
26.92434 1243.000
26.94462 1167.000
26.96490 1071.000
26.98518 1050.000
27.00546 1028.000
27.02574 861.000
27.04602 860.000
27.06630 771.000
27.08658 733.000
27.10686 738.000
27.12714 707.000
27.14742 681.000
27.16770 714.000
27.18798 674.000
27.20826 744.000
27.22854 750.000
27.24882 675.000
27.26910 672.000
27.28938 728.000
27.30966 723.000
27.32994 736.000
27.35022 769.000
27.37050 796.000
27.39078 793.000
27.41106 761.000
27.43134 791.000
27.45162 816.000
27.47190 951.000
27.49218 871.000
27.51246 916.000
27.53274 909.000
27.55302 800.000
27.57330 781.000
27.59358 715.000
27.61386 650.000
27.63414 692.000
27.65442 619.000
27.67470 547.000
27.69498 534.000
27.71526 490.000
27.73555 527.000
27.75583 539.000
27.77611 535.000
27.79639 482.000
27.81667 544.000
27.83695 519.000
27.85723 537.000
27.87751 546.000
27.89779 560.000
27.91807 507.000
27.93835 552.000
27.95863 537.000
27.97891 538.000
27.99919 530.000
28.01947 549.000
28.03975 552.000
28.06003 501.000
28.08031 525.000
28.10059 509.000
28.12087 562.000
28.14115 524.000
28.16143 525.000
28.18171 540.000
28.20199 489.000
28.22227 503.000
28.24255 539.000
28.26283 577.000
28.28311 550.000
28.30339 590.000
28.32367 649.000
28.34395 649.000
28.36423 772.000
28.38451 814.000
28.40479 862.000
28.42507 832.000
28.44535 994.000
28.46563 1191.000
28.48591 1226.000
28.50619 1380.000
28.52647 1475.000
28.54675 1606.000
28.56703 1631.000
28.58731 1619.000
28.60759 1610.000
28.62787 1543.000
28.64815 1494.000
28.66843 1333.000
28.68871 1274.000
28.70899 1306.000
28.72927 1209.000
28.74955 1141.000
28.76983 1138.000
28.79011 1008.000
28.81039 933.000
28.83067 879.000
28.85095 828.000
28.87123 803.000
28.89151 668.000
28.91179 705.000
28.93207 570.000
28.95235 587.000
28.97263 599.000
28.99291 631.000
29.01319 593.000
29.03347 618.000
29.05375 631.000
29.07403 649.000
29.09431 621.000
29.11459 650.000
29.13487 676.000
29.15515 708.000
29.17543 690.000
29.19571 664.000
29.21599 698.000
29.23627 691.000
29.25655 642.000
29.27683 634.000
29.29711 632.000
29.31739 582.000
29.33767 591.000
29.35795 595.000
29.37823 600.000
29.39851 519.000
29.41879 576.000
29.43907 569.000
29.45935 557.000
29.47963 572.000
29.49991 560.000
29.52019 562.000
29.54047 623.000
29.56075 652.000
29.58103 686.000
29.60131 662.000
29.62159 745.000
29.64188 853.000
29.66216 876.000
29.68244 937.000
29.70272 1025.000
29.72300 1127.000
29.74328 1168.000
29.76356 1313.000
29.78384 1332.000
29.80412 1345.000
29.82440 1308.000
29.84468 1320.000
29.86496 1329.000
29.88524 1246.000
29.90552 1209.000
29.92580 1264.000
29.94608 1210.000
29.96636 1173.000
29.98664 1170.000
30.00692 1230.000
30.02720 1283.000
30.04748 1202.000
30.06776 1214.000
30.08804 1189.000
30.10832 1163.000
30.12860 1106.000
30.14888 1061.000
30.16916 1066.000
30.18944 950.000
30.20972 931.000
30.23000 846.000
30.25028 844.000
30.27056 840.000
30.29084 845.000
30.31112 834.000
30.33140 770.000
30.35168 787.000
30.37196 725.000
30.39224 748.000
30.41252 734.000
30.43280 720.000
30.45308 652.000
30.47336 687.000
30.49364 598.000
30.51392 539.000
30.53420 576.000
30.55448 551.000
30.57476 496.000
30.59504 514.000
30.61532 464.000
30.63560 522.000
30.65588 578.000
30.67616 521.000
30.69644 551.000
30.71672 609.000
30.73700 578.000
30.75728 592.000
30.77756 571.000
30.79784 630.000
30.81812 599.000
30.83840 558.000
30.85868 615.000
30.87896 688.000
30.89924 606.000
30.91952 681.000
30.93980 666.000
30.96008 750.000
30.98036 632.000
31.00064 654.000
31.02092 637.000
31.04120 634.000
31.06148 632.000
31.08176 652.000
31.10204 607.000
31.12232 683.000
31.14260 656.000
31.16288 683.000
31.18316 680.000
31.20344 738.000
31.22372 714.000
31.24400 788.000
31.26428 739.000
31.28456 871.000
31.30484 860.000
31.32512 907.000
31.34540 873.000
31.36568 852.000
31.38596 842.000
31.40624 850.000
31.42652 868.000
31.44680 869.000
31.46708 849.000
31.48736 905.000
31.50764 905.000
31.52792 1063.000
31.54821 1049.000
31.56849 1155.000
31.58877 1215.000
31.60905 1276.000
31.62933 1299.000
31.64961 1348.000
31.66989 1264.000
31.69017 1300.000
31.71045 1237.000
31.73073 1105.000
31.75101 1093.000
31.77129 999.000
31.79157 980.000
31.81185 948.000
31.83213 915.000
31.85241 892.000
31.87269 858.000
31.89297 815.000
31.91325 807.000
31.93353 827.000
31.95381 839.000
31.97409 830.000
31.99437 921.000
32.01465 840.000
32.03493 884.000
32.05521 858.000
32.07549 932.000
32.09577 807.000
32.11605 796.000
32.13633 719.000
32.15661 726.000
32.17689 648.000
32.19717 644.000
32.21745 599.000
32.23773 635.000
32.25801 588.000
32.27829 609.000
32.29857 574.000
32.31885 577.000
32.33913 634.000
32.35941 682.000
32.37969 616.000
32.39997 606.000
32.42025 576.000
32.44053 586.000
32.46081 573.000
32.48109 558.000
32.50137 535.000
32.52165 529.000
32.54193 560.000
32.56221 506.000
32.58249 549.000
32.60277 555.000
32.62305 517.000
32.64333 535.000
32.66361 499.000
32.68389 535.000
32.70417 525.000
32.72445 532.000
32.74473 539.000
32.76501 526.000
32.78529 494.000
32.80557 503.000
32.82585 473.000
32.84613 490.000
32.86641 531.000
32.88669 532.000
32.90697 536.000
32.92725 593.000
32.94753 520.000
32.96781 551.000
32.98809 601.000
33.00837 597.000
33.02865 652.000
33.04893 620.000
33.06921 613.000
33.08949 703.000
33.10977 645.000
33.13005 720.000
33.15033 706.000
33.17061 728.000
33.19089 727.000
33.21117 659.000
33.23145 671.000
33.25173 589.000
33.27201 574.000
33.29229 611.000
33.31257 597.000
33.33285 587.000
33.35313 579.000
33.37341 548.000
33.39369 611.000
33.41397 627.000
33.43425 579.000
33.45454 616.000
33.47482 617.000
33.49510 582.000
33.51538 629.000
33.53566 681.000
33.55594 696.000
33.57622 680.000
33.59650 685.000
33.61678 750.000
33.63706 794.000
33.65734 747.000
33.67762 735.000
33.69790 708.000
33.71818 695.000
33.73846 695.000
33.75874 626.000
33.77902 620.000
33.79930 570.000
33.81958 516.000
33.83986 516.000
33.86014 563.000
33.88042 520.000
33.90070 497.000
33.92098 573.000
33.94126 499.000
33.96154 504.000
33.98182 513.000
34.00210 496.000
34.02238 469.000
34.04266 494.000
34.06294 495.000
34.08322 469.000
34.10350 502.000
34.12378 491.000
34.14406 505.000
34.16434 512.000
34.18462 535.000
34.20490 537.000
34.22518 486.000
34.24546 502.000
34.26574 492.000
34.28602 450.000
34.30630 506.000
34.32658 494.000
34.34686 474.000
34.36714 457.000
34.38742 454.000
34.40770 454.000
34.42798 461.000
34.44826 494.000
34.46854 468.000
34.48882 483.000
34.50910 513.000
34.52938 554.000
34.54966 536.000
34.56994 615.000
34.59022 607.000
34.61050 587.000
34.63078 611.000
34.65106 602.000
34.67134 611.000
34.69162 582.000
34.71190 592.000
34.73218 600.000
34.75246 611.000
34.77274 659.000
34.79302 654.000
34.81330 657.000
34.83358 676.000
34.85386 661.000
34.87414 733.000
34.89442 743.000
34.91470 887.000
34.93498 846.000
34.95526 879.000
34.97554 841.000
34.99582 889.000
35.01610 911.000
35.03638 954.000
35.05666 883.000
35.07694 959.000
35.09722 888.000
35.11750 941.000
35.13778 908.000
35.15806 870.000
35.17834 868.000
35.19862 901.000
35.21890 876.000
35.23918 935.000
35.25946 897.000
35.27974 878.000
35.30002 870.000
35.32030 863.000
35.34058 808.000
35.36087 740.000
35.38115 697.000
35.40143 681.000
35.42171 621.000
35.44199 564.000
35.46227 519.000
35.48255 581.000
35.50283 567.000
35.52311 549.000
35.54339 558.000
35.56367 549.000
35.58395 459.000
35.60423 492.000
35.62451 479.000
35.64479 478.000
35.66507 488.000
35.68535 458.000
35.70563 433.000
35.72591 485.000
35.74619 455.000
35.76647 496.000
35.78675 497.000
35.80703 514.000
35.82731 530.000
35.84759 539.000
35.86787 525.000
35.88815 557.000
35.90843 558.000
35.92871 564.000
35.94899 611.000
35.96927 614.000
35.98955 622.000
36.00983 641.000
36.03011 703.000
36.05039 720.000
36.07067 735.000
36.09095 806.000
36.11123 808.000
36.13151 912.000
36.15179 928.000
36.17207 915.000
36.19235 931.000
36.21263 942.000
36.23291 973.000
36.25319 1026.000
36.27347 940.000
36.29375 951.000
36.31403 884.000
36.33431 823.000
36.35459 817.000
36.37487 806.000
36.39515 790.000
36.41543 697.000
36.43571 696.000
36.45599 649.000
36.47627 636.000
36.49655 632.000
36.51683 606.000
36.53711 602.000
36.55739 585.000
36.57767 555.000
36.59795 524.000
36.61823 549.000
36.63851 561.000
36.65879 633.000
36.67907 604.000
36.69935 576.000
36.71963 644.000
36.73991 543.000
36.76019 606.000
36.78047 576.000
36.80075 549.000
36.82103 546.000
36.84131 543.000
36.86159 554.000
36.88187 534.000
36.90215 515.000
36.92243 534.000
36.94271 511.000
36.96299 480.000
36.98327 529.000
37.00355 463.000
37.02383 560.000
37.04411 545.000
37.06439 500.000
37.08467 536.000
37.10495 562.000
37.12523 556.000
37.14551 560.000
37.16579 653.000
37.18607 609.000
37.20635 663.000
37.22663 629.000
37.24691 652.000
37.26720 666.000
37.28748 667.000
37.30776 640.000
37.32804 671.000
37.34832 611.000
37.36860 630.000
37.38888 571.000
37.40916 521.000
37.42944 532.000
37.44972 489.000
37.47000 493.000
37.49028 503.000
37.51056 479.000
37.53084 491.000
37.55112 458.000
37.57140 453.000
37.59168 471.000
37.61196 464.000
37.63224 469.000
37.65252 433.000
37.67280 434.000
37.69308 470.000
37.71336 426.000
37.73364 470.000
37.75392 483.000
37.77420 488.000
37.79448 539.000
37.81476 538.000
37.83504 576.000
37.85532 547.000
37.87560 553.000
37.89588 666.000
37.91616 647.000
37.93644 683.000
37.95672 606.000
37.97700 641.000
37.99728 622.000
38.01756 607.000
38.03784 647.000
38.05812 612.000
38.07840 588.000
38.09868 566.000
38.11896 585.000
38.13924 531.000
38.15952 573.000
38.17980 553.000
38.20008 556.000
38.22036 579.000
38.24064 570.000
38.26092 565.000
38.28120 602.000
38.30148 654.000
38.32176 624.000
38.34204 678.000
38.36232 648.000
38.38260 639.000
38.40288 655.000
38.42316 679.000
38.44344 610.000
38.46372 655.000
38.48400 639.000
38.50428 654.000
38.52456 705.000
38.54484 590.000
38.56512 650.000
38.58540 580.000
38.60568 555.000
38.62596 567.000
38.64624 561.000
38.66652 545.000
38.68680 544.000
38.70708 534.000
38.72736 502.000
38.74764 548.000
38.76792 544.000
38.78820 586.000
38.80848 552.000
38.82876 568.000
38.84904 557.000
38.86932 634.000
38.88960 642.000
38.90988 678.000
38.93016 727.000
38.95044 770.000
38.97072 757.000
38.99100 777.000
39.01128 730.000
39.03156 777.000
39.05184 743.000
39.07212 720.000
39.09240 711.000
39.11268 725.000
39.13296 626.000
39.15324 668.000
39.17353 624.000
39.19381 601.000
39.21409 593.000
39.23437 594.000
39.25465 518.000
39.27493 553.000
39.29521 567.000
39.31549 533.000
39.33577 546.000
39.35605 491.000
39.37633 558.000
39.39661 546.000
39.41689 554.000
39.43717 599.000
39.45745 572.000
39.47773 573.000
39.49801 579.000
39.51829 624.000
39.53857 597.000
39.55885 579.000
39.57913 610.000
39.59941 575.000
39.61969 586.000
39.63997 603.000
39.66025 614.000
39.68053 584.000
39.70081 603.000
39.72109 561.000
39.74137 563.000
39.76165 542.000
39.78193 548.000
39.80221 507.000
39.82249 577.000
39.84277 563.000
39.86305 536.000
39.88333 567.000
39.90361 566.000
39.92389 550.000
39.94417 563.000
39.96445 566.000
39.98473 627.000
40.00501 561.000
40.02529 571.000
40.04557 581.000
40.06585 611.000
40.08613 607.000
40.10641 618.000
40.12669 640.000
40.14697 591.000
40.16725 621.000
40.18753 628.000
40.20781 591.000
40.22809 613.000
40.24837 618.000
40.26865 605.000
40.28893 597.000
40.30921 677.000
40.32949 651.000
40.34977 706.000
40.37005 694.000
40.39033 767.000
40.41061 787.000
40.43089 749.000
40.45117 838.000
40.47145 869.000
40.49173 945.000
40.51201 913.000
40.53229 938.000
40.55257 924.000
40.57285 891.000
40.59313 836.000
40.61341 799.000
40.63369 848.000
40.65397 790.000
40.67425 784.000
40.69453 672.000
40.71481 643.000
40.73509 698.000
40.75537 554.000
40.77565 610.000
40.79593 577.000
40.81621 523.000
40.83649 551.000
40.85677 495.000
40.87705 550.000
40.89733 500.000
40.91761 488.000
40.93789 474.000
40.95817 520.000
40.97845 521.000
40.99873 524.000
41.01901 546.000
41.03929 527.000
41.05957 498.000
41.07986 482.000
41.10014 517.000
41.12042 538.000
41.14070 508.000
41.16098 512.000
41.18126 560.000
41.20154 489.000
41.22182 585.000
41.24210 567.000
41.26238 542.000
41.28266 530.000
41.30294 539.000
41.32322 548.000
41.34350 515.000
41.36378 538.000
41.38406 527.000
41.40434 467.000
41.42462 508.000
41.44490 492.000
41.46518 468.000
41.48546 462.000
41.50574 470.000
41.52602 458.000
41.54630 471.000
41.56658 466.000
41.58686 435.000
41.60714 539.000
41.62742 523.000
41.64770 453.000
41.66798 517.000
41.68826 492.000
41.70854 538.000
41.72882 532.000
41.74910 538.000
41.76938 497.000
41.78966 538.000
41.80994 490.000
41.83022 519.000
41.85050 485.000
41.87078 500.000
41.89106 497.000
41.91134 472.000
41.93162 459.000
41.95190 450.000
41.97218 443.000
41.99246 418.000
42.01274 449.000
42.03302 425.000
42.05330 400.000
42.07358 414.000
42.09386 425.000
42.11414 425.000
42.13442 423.000
42.15470 411.000
42.17498 459.000
42.19526 464.000
42.21554 439.000
42.23582 398.000
42.25610 406.000
42.27638 435.000
42.29666 418.000
42.31694 465.000
42.33722 439.000
42.35750 446.000
42.37778 447.000
42.39806 446.000
42.41834 484.000
42.43862 472.000
42.45890 455.000
42.47918 496.000
42.49946 549.000
42.51974 491.000
42.54002 522.000
42.56030 499.000
42.58058 532.000
42.60086 539.000
42.62114 494.000
42.64142 548.000
42.66170 503.000
42.68198 484.000
42.70226 513.000
42.72254 502.000
42.74282 513.000
42.76310 505.000
42.78338 484.000
42.80366 480.000
42.82394 428.000
42.84422 487.000
42.86450 474.000
42.88478 497.000
42.90506 461.000
42.92534 460.000
42.94562 451.000
42.96590 473.000
42.98619 462.000
43.00647 528.000
43.02675 492.000
43.04703 497.000
43.06731 487.000
43.08759 549.000
43.10787 576.000
43.12815 567.000
43.14843 606.000
43.16871 609.000
43.18899 570.000
43.20927 579.000
43.22955 568.000
43.24983 535.000
43.27011 539.000
43.29039 542.000
43.31067 594.000
43.33095 562.000
43.35123 536.000
43.37151 539.000
43.39179 570.000
43.41207 544.000
43.43235 514.000
43.45263 530.000
43.47291 560.000
43.49319 552.000
43.51347 550.000
43.53375 586.000
43.55403 548.000
43.57431 585.000
43.59459 536.000
43.61487 513.000
43.63515 579.000
43.65543 596.000
43.67571 581.000
43.69599 545.000
43.71627 534.000
43.73655 547.000
43.75683 565.000
43.77711 535.000
43.79739 616.000
43.81767 596.000
43.83795 567.000
43.85823 575.000
43.87851 561.000
43.89879 584.000
43.91907 596.000
43.93935 562.000
43.95963 565.000
43.97991 558.000
44.00019 523.000
44.02047 540.000
44.04075 534.000
44.06103 522.000
44.08131 542.000
44.10159 530.000
44.12187 556.000
44.14215 557.000
44.16243 527.000
44.18271 552.000
44.20299 583.000
44.22327 587.000
44.24355 583.000
44.26383 602.000
44.28411 613.000
44.30439 594.000
44.32467 631.000
44.34495 618.000
44.36523 667.000
44.38551 653.000
44.40579 717.000
44.42607 682.000
44.44635 683.000
44.46663 745.000
44.48691 719.000
44.50719 777.000
44.52747 693.000
44.54775 668.000
44.56803 700.000
44.58831 687.000
44.60859 647.000
44.62887 636.000
44.64915 653.000
44.66943 674.000
44.68971 672.000
44.70999 643.000
44.73027 670.000
44.75055 577.000
44.77083 655.000
44.79111 610.000
44.81139 612.000
44.83167 587.000
44.85195 563.000
44.87223 578.000
44.89251 585.000
44.91280 568.000
44.93308 521.000
44.95336 543.000
44.97364 574.000
44.99392 509.000
45.01420 523.000
45.03448 565.000
45.05476 553.000
45.07504 519.000
45.09532 539.000
45.11560 526.000
45.13588 565.000
45.15616 560.000
45.17644 532.000
45.19672 477.000
45.21700 541.000
45.23728 565.000
45.25756 507.000
45.27784 564.000
45.29812 555.000
45.31840 533.000
45.33868 536.000
45.35896 562.000
45.37924 541.000
45.39952 499.000
45.41980 526.000
45.44008 567.000
45.46036 551.000
45.48064 542.000
45.50092 587.000
45.52120 567.000
45.54148 617.000
45.56176 586.000
45.58204 548.000
45.60232 519.000
45.62260 537.000
45.64288 538.000
45.66316 562.000
45.68344 542.000
45.70372 549.000
45.72400 512.000
45.74428 528.000
45.76456 513.000
45.78484 525.000
45.80512 503.000
45.82540 476.000
45.84568 471.000
45.86596 484.000
45.88624 496.000
45.90652 497.000
45.92680 453.000
45.94708 492.000
45.96736 508.000
45.98764 474.000
46.00792 523.000
46.02820 510.000
46.04848 483.000
46.06876 503.000
46.08904 517.000
46.10932 484.000
46.12960 568.000
46.14988 523.000
46.17016 546.000
46.19044 502.000
46.21072 554.000
46.23100 560.000
46.25128 570.000
46.27156 517.000
46.29184 547.000
46.31212 555.000
46.33240 567.000
46.35268 520.000
46.37296 594.000
46.39324 604.000
46.41352 577.000
46.43380 609.000
46.45408 595.000
46.47436 614.000
46.49464 570.000
46.51492 609.000
46.53520 631.000
46.55548 620.000
46.57576 638.000
46.59604 591.000
46.61632 623.000
46.63660 605.000
46.65688 590.000
46.67716 585.000
46.69744 585.000
46.71772 589.000
46.73800 497.000
46.75828 520.000
46.77856 499.000
46.79884 480.000
46.81913 491.000
46.83941 553.000
46.85969 528.000
46.87997 537.000
46.90025 492.000
46.92053 463.000
46.94081 456.000
46.96109 469.000
46.98137 457.000
47.00165 522.000
47.02193 533.000
47.04221 489.000
47.06249 474.000
47.08277 520.000
47.10305 486.000
47.12333 488.000
47.14361 483.000
47.16389 446.000
47.18417 503.000
47.20445 470.000
47.22473 497.000
47.24501 509.000
47.26529 495.000
47.28557 497.000
47.30585 492.000
47.32613 497.000
47.34641 512.000
47.36669 482.000
47.38697 517.000
47.40725 474.000
47.42753 527.000
47.44781 535.000
47.46809 541.000
47.48837 523.000
47.50865 519.000
47.52893 507.000
47.54921 532.000
47.56949 494.000
47.58977 494.000
47.61005 533.000
47.63033 506.000
47.65061 526.000
47.67089 478.000
47.69117 485.000
47.71145 445.000
47.73173 497.000
47.75201 506.000
47.77229 504.000
47.79257 453.000
47.81285 486.000
47.83313 494.000
47.85341 501.000
47.87369 515.000
47.89397 558.000
47.91425 529.000
47.93453 540.000
47.95481 522.000
47.97509 537.000
47.99537 496.000
48.01565 523.000
48.03593 522.000
48.05621 492.000
48.07649 499.000
48.09677 526.000
48.11705 498.000
48.13733 499.000
48.15761 470.000
48.17789 515.000
48.19817 458.000
48.21845 475.000
48.23873 503.000
48.25901 438.000
48.27929 493.000
48.29957 470.000
48.31985 484.000
48.34013 491.000
48.36041 500.000
48.38069 547.000
48.40097 524.000
48.42125 506.000
48.44153 502.000
48.46181 488.000
48.48209 497.000
48.50237 458.000
48.52265 463.000
48.54293 433.000
48.56321 470.000
48.58349 453.000
48.60377 440.000
48.62405 438.000
48.64433 438.000
48.66461 450.000
48.68489 459.000
48.70517 425.000
48.72546 480.000
48.74574 470.000
48.76602 463.000
48.78630 452.000
48.80658 431.000
48.82686 489.000
48.84714 406.000
48.86742 466.000
48.88770 438.000
48.90798 451.000
48.92826 467.000
48.94854 538.000
48.96882 459.000
48.98910 462.000
49.00938 516.000
49.02966 456.000
49.04994 485.000
49.07022 494.000
49.09050 450.000
49.11078 495.000
49.13106 479.000
49.15134 456.000
49.17162 497.000
49.19190 513.000
49.21218 486.000
49.23246 474.000
49.25274 492.000
49.27302 472.000
49.29330 460.000
49.31358 452.000
49.33386 483.000
49.35414 494.000
49.37442 448.000
49.39470 443.000
49.41498 427.000
49.43526 437.000
49.45554 459.000
49.47582 462.000
49.49610 399.000
49.51638 436.000
49.53666 463.000
49.55694 414.000
49.57722 426.000
49.59750 411.000
49.61778 422.000
49.63806 405.000
49.65834 445.000
49.67862 402.000
49.69890 494.000
49.71918 427.000
49.73946 416.000
49.75974 453.000
49.78002 434.000
49.80030 442.000
49.82058 444.000
49.84086 430.000
49.86114 436.000
49.88142 445.000
49.90170 423.000
49.92198 387.000
49.94226 449.000
49.96254 462.000
49.98282 444.000
50.00310 445.000
