5.00155 808.000
5.02183 812.000
5.04211 828.000
5.06239 799.000
5.08267 748.000
5.10295 771.000
5.12323 757.000
5.14351 749.000
5.16379 754.000
5.18407 799.000
5.20435 707.000
5.22463 727.000
5.24491 714.000
5.26519 747.000
5.28547 679.000
5.30575 674.000
5.32603 718.000
5.34631 655.000
5.36659 683.000
5.38687 660.000
5.40715 639.000
5.42743 641.000
5.44771 666.000
5.46799 602.000
5.48827 643.000
5.50855 636.000
5.52883 637.000
5.54911 636.000
5.56939 621.000
5.58967 613.000
5.60995 609.000
5.63023 614.000
5.65051 621.000
5.67079 611.000
5.69107 590.000
5.71135 539.000
5.73163 555.000
5.75191 551.000
5.77219 534.000
5.79247 560.000
5.81275 597.000
5.83303 547.000
5.85331 513.000
5.87359 566.000
5.89387 508.000
5.91415 520.000
5.93443 550.000
5.95471 509.000
5.97499 484.000
5.99527 525.000
6.01555 541.000
6.03583 532.000
6.05611 524.000
6.07639 493.000
6.09667 546.000
6.11695 535.000
6.13723 494.000
6.15751 479.000
6.17779 482.000
6.19807 515.000
6.21835 486.000
6.23863 475.000
6.25891 515.000
6.27919 524.000
6.29947 503.000
6.31975 502.000
6.34003 501.000
6.36031 500.000
6.38059 492.000
6.40087 530.000
6.42115 547.000
6.44143 518.000
6.46171 585.000
6.48199 580.000
6.50227 624.000
6.52255 687.000
6.54283 698.000
6.56311 728.000
6.58339 801.000
6.60367 939.000
6.62395 1014.000
6.64423 1252.000
6.66451 1424.000
6.68479 1736.000
6.70507 2121.000
6.72536 2455.000
6.74564 3018.000
6.76592 3571.000
6.78620 4086.000
6.80648 4565.000
6.82676 5178.000
6.84704 5411.000
6.86732 5622.000
6.88760 5506.000
6.90788 5083.000
6.92816 4591.000
6.94844 3842.000
6.96872 3038.000
6.98900 2244.000
7.00928 1819.000
7.02956 1231.000
7.04984 994.000
7.07012 747.000
7.09040 712.000
7.11068 609.000
7.13096 695.000
7.15124 577.000
7.17152 572.000
7.19180 517.000
7.21208 555.000
7.23236 528.000
7.25264 482.000
7.27292 459.000
7.29320 443.000
7.31348 472.000
7.33376 453.000
7.35404 438.000
7.37432 493.000
7.39460 469.000
7.41488 447.000
7.43516 491.000
7.45544 406.000
7.47572 442.000
7.49600 471.000
7.51628 407.000
7.53656 441.000
7.55684 460.000
7.57712 424.000
7.59740 486.000
7.61768 464.000
7.63796 433.000
7.65824 444.000
7.67852 425.000
7.69880 443.000
7.71908 439.000
7.73936 408.000
7.75964 413.000
7.77992 385.000
7.80020 429.000
7.82048 424.000
7.84076 403.000
7.86104 493.000
7.88132 444.000
7.90160 430.000
7.92188 432.000
7.94216 459.000
7.96244 417.000
7.98272 477.000
8.00300 438.000
8.02328 456.000
8.04356 490.000
8.06384 523.000
8.08412 558.000
8.10440 577.000
8.12468 594.000
8.14496 675.000
8.16524 804.000
8.18552 940.000
8.20580 1014.000
8.22608 1192.000
8.24636 1430.000
8.26664 1733.000
8.28692 2232.000
8.30720 2716.000
8.32748 3319.000
8.34776 4046.000
8.36804 4586.000
8.38832 5458.000
8.40860 5775.000
8.42888 5879.000
8.44916 5927.000
8.46944 5789.000
8.48972 5077.000
8.51000 3993.000
8.53028 3143.000
8.55056 2436.000
8.57084 1760.000
8.59112 1318.000
8.61140 1188.000
8.63168 1054.000
8.65197 1000.000
8.67225 917.000
8.69253 942.000
8.71281 859.000
8.73309 836.000
8.75337 672.000
8.77365 666.000
8.79393 594.000
8.81421 616.000
8.83449 555.000
8.85477 537.000
8.87505 472.000
8.89533 508.000
8.91561 437.000
8.93589 485.000
8.95617 417.000
8.97645 470.000
8.99673 453.000
9.01701 428.000
9.03729 448.000
9.05757 441.000
9.07785 406.000
9.09813 417.000
9.11841 402.000
9.13869 458.000
9.15897 414.000
9.17925 456.000
9.19953 397.000
9.21981 430.000
9.24009 402.000
9.26037 378.000
9.28065 412.000
9.30093 400.000
9.32121 410.000
9.34149 405.000
9.36177 414.000
9.38205 404.000
9.40233 410.000
9.42261 428.000
9.44289 479.000
9.46317 475.000
9.48345 489.000
9.50373 572.000
9.52401 482.000
9.54429 514.000
9.56457 520.000
9.58485 485.000
9.60513 499.000
9.62541 450.000
9.64569 478.000
9.66597 426.000
9.68625 433.000
9.70653 440.000
9.72681 386.000
9.74709 419.000
9.76737 408.000
9.78765 461.000
9.80793 421.000
9.82821 498.000
9.84849 542.000
9.86877 555.000
9.88905 565.000
9.90933 527.000
9.92961 560.000
9.94989 530.000
9.97017 558.000
9.99045 511.000
10.01073 481.000
10.03101 412.000
10.05129 442.000
10.07157 434.000
10.09185 419.000
10.11213 381.000
10.13241 431.000
10.15269 408.000
10.17297 416.000
10.19325 388.000
10.21353 373.000
10.23381 409.000
10.25409 408.000
10.27437 382.000
10.29465 365.000
10.31493 400.000
10.33521 415.000
10.35549 385.000
10.37577 416.000
10.39605 433.000
10.41633 473.000
10.43661 485.000
10.45689 569.000
10.47717 600.000
10.49745 731.000
10.51773 785.000
10.53801 948.000
10.55830 1029.000
10.57858 1128.000
10.59886 1237.000
10.61914 1153.000
10.63942 1256.000
10.65970 1130.000
10.67998 1019.000
10.70026 822.000
10.72054 786.000
10.74082 612.000
10.76110 519.000
10.78138 496.000
10.80166 483.000
10.82194 464.000
10.84222 434.000
10.86250 441.000
10.88278 445.000
10.90306 468.000
10.92334 504.000
10.94362 487.000
10.96390 514.000
10.98418 491.000
11.00446 501.000
11.02474 501.000
11.04502 509.000
11.06530 461.000
11.08558 415.000
11.10586 403.000
11.12614 392.000
11.14642 389.000
11.16670 371.000
11.18698 356.000
11.20726 362.000
11.22754 336.000
11.24782 345.000
11.26810 335.000
11.28838 358.000
11.30866 393.000
11.32894 352.000
11.34922 335.000
11.36950 346.000
11.38978 355.000
11.41006 348.000
11.43034 352.000
11.45062 371.000
11.47090 358.000
11.49118 372.000
11.51146 360.000
11.53174 345.000
11.55202 358.000
11.57230 357.000
11.59258 397.000
11.61286 341.000
11.63314 378.000
11.65342 350.000
11.67370 346.000
11.69398 346.000
11.71426 333.000
11.73454 314.000
11.75482 355.000
11.77510 342.000
11.79538 350.000
11.81566 315.000
11.83594 327.000
11.85622 329.000
11.87650 363.000
11.89678 358.000
11.91706 354.000
11.93734 367.000
11.95762 366.000
11.97790 374.000
11.99818 389.000
12.01846 347.000
12.03874 388.000
12.05902 394.000
12.07930 365.000
12.09958 333.000
12.11986 341.000
12.14014 325.000
12.16042 353.000
12.18070 334.000
12.20098 345.000
12.22126 381.000
12.24154 395.000
12.26182 359.000
12.28210 328.000
12.30238 389.000
12.32266 332.000
12.34294 335.000
12.36322 377.000
12.38350 368.000
12.40378 321.000
12.42406 347.000
12.44434 371.000
12.46463 368.000
12.48491 379.000
12.50519 363.000
12.52547 372.000
12.54575 366.000
12.56603 354.000
12.58631 345.000
12.60659 352.000
12.62687 358.000
12.64715 342.000
12.66743 345.000
12.68771 382.000
12.70799 370.000
12.72827 376.000
12.74855 322.000
12.76883 348.000
12.78911 349.000
12.80939 337.000
12.82967 368.000
12.84995 354.000
12.87023 356.000
12.89051 381.000
12.91079 355.000
12.93107 368.000
12.95135 334.000
12.97163 399.000
12.99191 387.000
13.01219 378.000
13.03247 415.000
13.05275 422.000
13.07303 429.000
13.09331 442.000
13.11359 509.000
13.13387 540.000
13.15415 583.000
13.17443 719.000
13.19471 705.000
13.21499 806.000
13.23527 871.000
13.25555 859.000
13.27583 853.000
13.29611 1017.000
13.31639 982.000
13.33667 986.000
13.35695 1038.000
13.37723 1083.000
13.39751 1100.000
13.41779 1177.000
13.43807 1161.000
13.45835 1188.000
13.47863 1228.000
13.49891 1238.000
13.51919 1301.000
13.53947 1393.000
13.55975 1546.000
13.58003 1584.000
13.60031 1656.000
13.62059 1654.000
13.64087 1626.000
13.66115 1600.000
13.68143 1439.000
13.70171 1342.000
13.72199 1192.000
13.74227 1093.000
13.76255 984.000
13.78283 895.000
13.80311 752.000
13.82339 775.000
13.84367 673.000
13.86395 633.000
13.88423 536.000
13.90451 553.000
13.92479 441.000
13.94507 443.000
13.96535 447.000
13.98563 438.000
14.00591 425.000
14.02619 466.000
14.04647 407.000
14.06675 392.000
14.08703 426.000
14.10731 416.000
14.12759 435.000
14.14787 410.000
14.16815 386.000
14.18843 412.000
14.20871 403.000
14.22899 417.000
14.24927 367.000
14.26955 437.000
14.28983 390.000
14.31011 427.000
14.33039 452.000
14.35067 441.000
14.37096 407.000
14.39124 421.000
14.41152 435.000
14.43180 478.000
14.45208 467.000
14.47236 515.000
14.49264 535.000
14.51292 521.000
14.53320 599.000
14.55348 655.000
14.57376 749.000
14.59404 998.000
14.61432 1171.000
14.63460 1393.000
14.65488 1599.000
14.67516 1821.000
14.69544 2053.000
14.71572 2224.000
14.73600 2373.000
14.75628 2260.000
14.77656 2060.000
14.79684 1796.000
14.81712 1510.000
14.83740 1301.000
14.85768 1201.000
14.87796 1112.000
14.89824 1191.000
14.91852 1268.000
14.93880 1410.000
14.95908 1458.000
14.97936 1549.000
14.99964 1430.000
15.01992 1465.000
15.04020 1244.000
15.06048 1127.000
15.08076 938.000
15.10104 812.000
15.12132 642.000
15.14160 591.000
15.16188 564.000
15.18216 518.000
15.20244 471.000
15.22272 406.000
15.24300 410.000
15.26328 420.000
15.28356 441.000
15.30384 467.000
15.32412 432.000
15.34440 413.000
15.36468 448.000
15.38496 426.000
15.40524 444.000
15.42552 382.000
15.44580 486.000
15.46608 385.000
15.48636 445.000
15.50664 441.000
15.52692 426.000
15.54720 435.000
15.56748 445.000
15.58776 482.000
15.60804 482.000
15.62832 464.000
15.64860 495.000
15.66888 489.000
15.68916 461.000
15.70944 456.000
15.72972 483.000
15.75000 442.000
15.77028 458.000
15.79056 468.000
15.81084 434.000
15.83112 462.000
15.85140 442.000
15.87168 444.000
15.89196 497.000
15.91224 461.000
15.93252 478.000
15.95280 484.000
15.97308 523.000
15.99336 588.000
16.01364 593.000
16.03392 632.000
16.05420 687.000
16.07448 688.000
16.09476 737.000
16.11504 779.000
16.13532 808.000
16.15560 877.000
16.17588 838.000
16.19616 884.000
16.21644 837.000
16.23672 969.000
16.25700 1119.000
16.27729 1317.000
16.29757 1568.000
16.31785 1887.000
16.33813 2283.000
16.35841 2694.000
16.37869 3306.000
16.39897 3482.000
16.41925 3730.000
16.43953 3922.000
16.45981 3871.000
16.48009 3532.000
16.50037 3231.000
16.52065 2766.000
16.54093 2449.000
16.56121 2190.000
16.58149 2009.000
16.60177 1855.000
16.62205 2001.000
16.64233 2044.000
16.66261 2114.000
16.68289 2353.000
16.70317 2466.000
16.72345 2577.000
16.74373 2579.000
16.76401 2799.000
16.78429 3087.000
16.80457 3306.000
16.82485 3371.000
16.84513 3381.000
16.86541 3625.000
16.88569 3355.000
16.90597 3027.000
16.92625 2812.000
16.94653 2357.000
16.96681 2082.000
16.98709 2073.000
17.00737 1958.000
17.02765 2181.000
17.04793 2515.000
17.06821 3074.000
17.08849 3618.000
17.10877 4321.000
17.12905 4833.000
17.14933 5068.000
17.16961 5277.000
17.18989 4848.000
17.21017 4459.000
17.23045 4001.000
17.25073 3079.000
17.27101 2615.000
17.29129 2037.000
17.31157 1736.000
17.33185 1491.000
17.35213 1287.000
17.37241 1160.000
17.39269 1053.000
17.41297 1020.000
17.43325 989.000
17.45353 906.000
17.47381 913.000
17.49409 786.000
17.51437 734.000
17.53465 712.000
17.55493 660.000
17.57521 766.000
17.59549 699.000
17.61577 723.000
17.63605 758.000
17.65633 731.000
17.67661 807.000
17.69689 813.000
17.71717 875.000
17.73745 925.000
17.75773 1094.000
17.77801 1104.000
17.79829 1169.000
17.81857 1220.000
17.83885 1265.000
17.85913 1292.000
17.87941 1221.000
17.89969 1272.000
17.91997 1332.000
17.94025 1458.000
17.96053 1713.000
17.98081 2012.000
18.00109 2492.000
18.02137 3081.000
18.04165 3811.000
18.06193 4786.000
18.08221 5883.000
18.10249 6523.000
18.12277 7526.000
18.14305 7950.000
18.16333 7917.000
18.18362 7602.000
18.20390 6716.000
18.22418 5665.000
18.24446 4772.000
18.26474 3859.000
18.28502 2999.000
18.30530 2452.000
18.32558 1880.000
18.34586 1777.000
18.36614 1627.000
18.38642 1551.000
18.40670 1476.000
18.42698 1408.000
18.44726 1385.000
18.46754 1382.000
18.48782 1257.000
18.50810 1255.000
18.52838 1257.000
18.54866 1271.000
18.56894 1419.000
18.58922 1522.000
18.60950 1721.000
18.62978 2154.000
18.65006 2456.000
18.67034 2928.000
18.69062 3195.000
18.71090 3606.000
18.73118 3645.000
18.75146 3907.000
18.77174 3803.000
18.79202 3635.000
18.81230 3257.000
18.83258 2949.000
18.85286 2444.000
18.87314 2265.000
18.89342 1995.000
18.91370 1693.000
18.93398 1602.000
18.95426 1546.000
18.97454 1468.000
18.99482 1452.000
19.01510 1472.000
19.03538 1584.000
19.05566 1619.000
19.07594 1692.000
19.09622 1816.000
19.11650 1846.000
19.13678 1712.000
19.15706 1654.000
19.17734 1449.000
19.19762 1355.000
19.21790 1187.000
19.23818 1171.000
19.25846 1042.000
19.27874 1071.000
19.29902 1051.000
19.31930 1035.000
19.33958 1133.000
19.35986 1231.000
19.38014 1326.000
19.40042 1550.000
19.42070 1786.000
19.44098 2063.000
19.46126 2608.000
19.48154 3018.000
19.50182 3511.000
19.52210 4125.000
19.54238 4420.000
19.56266 4836.000
19.58294 4988.000
19.60322 4758.000
19.62350 4565.000
19.64378 4114.000
19.66406 3542.000
19.68434 3200.000
19.70462 2642.000
19.72490 2281.000
19.74518 2158.000
19.76546 1953.000
19.78574 2008.000
19.80602 2045.000
19.82630 2232.000
19.84658 2468.000
19.86686 2748.000
19.88714 3089.000
19.90742 3486.000
19.92770 3960.000
19.94798 4248.000
19.96826 4532.000
19.98854 4676.000
20.00882 4654.000
20.02910 4437.000
20.04938 4130.000
20.06966 3801.000
20.08995 3314.000
20.11023 3095.000
20.13051 2833.000
20.15079 2748.000
20.17107 2773.000
20.19135 2970.000
20.21163 3158.000
20.23191 3171.000
20.25219 3476.000
20.27247 3580.000
20.29275 3773.000
20.31303 3909.000
20.33331 4202.000
20.35359 4328.000
20.37387 4683.000
20.39415 4704.000
20.41443 4646.000
20.43471 4559.000
20.45499 4179.000
20.47527 3543.000
20.49555 2960.000
20.51583 2440.000
20.53611 1982.000
20.55639 1697.000
20.57667 1532.000
20.59695 1512.000
20.61723 1432.000
20.63751 1403.000
20.65779 1409.000
20.67807 1303.000
20.69835 1386.000
20.71863 1167.000
20.73891 1151.000
20.75919 1089.000
20.77947 977.000
20.79975 989.000
20.82003 884.000
20.84031 905.000
20.86059 924.000
20.88087 889.000
20.90115 1007.000
20.92143 974.000
20.94171 965.000
20.96199 959.000
20.98227 993.000
21.00255 1002.000
21.02283 1062.000
21.04311 1058.000
21.06339 1070.000
21.08367 1206.000
21.10395 1138.000
21.12423 1177.000
21.14451 1352.000
21.16479 1525.000
21.18507 1637.000
21.20535 1789.000
21.22563 1923.000
21.24591 2145.000
21.26619 2328.000
21.28647 2654.000
21.30675 2970.000
21.32703 3506.000
21.34731 3891.000
21.36759 4542.000
21.38787 5436.000
21.40815 6280.000
21.42843 7158.000
21.44871 7956.000
21.46899 9059.000
21.48927 9729.000
21.50955 10569.000
21.52983 11074.000
21.55011 11647.000
21.57039 11910.000
21.59067 12061.000
21.61095 12043.000
21.63123 12009.000
21.65151 11678.000
21.67179 11245.000
21.69207 10649.000
21.71235 9912.000
21.73263 9053.000
21.75291 8000.000
21.77319 7047.000
21.79347 5941.000
21.81375 4933.000
21.83403 3880.000
21.85431 3086.000
21.87459 2505.000
21.89487 2026.000
21.91515 1741.000
21.93543 1606.000
21.95571 1310.000
21.97599 1191.000
21.99628 1122.000
22.01656 1151.000
22.03684 1030.000
22.05712 1029.000
22.07740 1034.000
22.09768 1050.000
22.11796 968.000
22.13824 1041.000
22.15852 949.000
22.17880 1004.000
22.19908 987.000
22.21936 1051.000
22.23964 1047.000
22.25992 1036.000
22.28020 993.000
22.30048 1016.000
22.32076 1050.000
22.34104 1052.000
22.36132 1064.000
22.38160 1056.000
22.40188 1119.000
22.42216 1153.000
22.44244 1229.000
22.46272 1354.000
22.48300 1407.000
22.50328 1518.000
22.52356 1598.000
22.54384 1664.000
22.56412 1762.000
22.58440 1752.000
22.60468 1591.000
22.62496 1520.000
22.64524 1547.000
22.66552 1340.000
22.68580 1293.000
22.70608 1221.000
22.72636 1175.000
22.74664 1158.000
22.76692 1187.000
22.78720 1228.000
22.80748 1234.000
22.82776 1300.000
22.84804 1300.000
22.86832 1389.000
22.88860 1487.000
22.90888 1591.000
22.92916 1553.000
22.94944 1602.000
22.96972 1604.000
22.99000 1607.000
23.01028 1640.000
23.03056 1646.000
23.05084 1698.000
23.07112 1735.000
23.09140 1548.000
23.11168 1558.000
23.13196 1468.000
23.15224 1352.000
23.17252 1213.000
23.19280 1138.000
23.21308 1070.000
23.23336 998.000
23.25364 1049.000
23.27392 1038.000
23.29420 1049.000
23.31448 1128.000
23.33476 1164.000
23.35504 1303.000
23.37532 1420.000
23.39560 1587.000
23.41588 1874.000
23.43616 2091.000
23.45644 2345.000
23.47672 2634.000
23.49700 3145.000
23.51728 3566.000
23.53756 3673.000
23.55784 4016.000
23.57812 4076.000
23.59840 4128.000
23.61868 3948.000
23.63896 3651.000
23.65924 3340.000
23.67952 3014.000
23.69980 2689.000
23.72008 2333.000
23.74036 2120.000
23.76064 1910.000
23.78092 1828.000
23.80120 1789.000
23.82148 1744.000
23.84176 1788.000
23.86204 1721.000
23.88232 1664.000
23.90261 1587.000
23.92289 1471.000
23.94317 1311.000
23.96345 1326.000
23.98373 1260.000
24.00401 1134.000
24.02429 1005.000
24.04457 948.000
24.06485 905.000
24.08513 942.000
24.10541 886.000
24.12569 924.000
24.14597 951.000
24.16625 936.000
24.18653 898.000
24.20681 963.000
24.22709 976.000
24.24737 1054.000
24.26765 1114.000
24.28793 1190.000
24.30821 1322.000
24.32849 1414.000
24.34877 1626.000
24.36905 1796.000
24.38933 2071.000
24.40961 2280.000
24.42989 2517.000
24.45017 2708.000
24.47045 2938.000
24.49073 2866.000
24.51101 2770.000
24.53129 2587.000
24.55157 2233.000
24.57185 2010.000
24.59213 1668.000
24.61241 1399.000
24.63269 1345.000
24.65297 1180.000
24.67325 1096.000
24.69353 1201.000
24.71381 1252.000
24.73409 1262.000
24.75437 1424.000
24.77465 1414.000
24.79493 1512.000
24.81521 1516.000
24.83549 1436.000
24.85577 1374.000
24.87605 1196.000
24.89633 1162.000
24.91661 1024.000
24.93689 1019.000
24.95717 916.000
24.97745 944.000
24.99773 882.000
25.01801 889.000
25.03829 979.000
25.05857 1001.000
25.07885 1085.000
25.09913 1213.000
25.11941 1316.000
25.13969 1397.000
25.15997 1553.000
25.18025 1757.000
25.20053 1816.000
25.22081 1971.000
25.24109 1992.000
25.26137 2130.000
25.28165 2097.000
25.30193 2125.000
25.32221 2084.000
25.34249 1945.000
25.36277 2031.000
25.38305 1966.000
25.40333 1804.000
25.42361 1725.000
25.44389 1734.000
25.46417 1688.000
25.48445 1707.000
25.50473 1627.000
25.52501 1645.000
25.54529 1613.000
25.56557 1584.000
25.58585 1408.000
25.60613 1358.000
25.62641 1199.000
25.64669 1128.000
25.66697 1041.000
25.68725 888.000
25.70753 852.000
25.72781 859.000
25.74809 865.000
25.76837 857.000
25.78865 862.000
25.80893 876.000
25.82922 844.000
25.84950 929.000
25.86978 878.000
25.89006 930.000
25.91034 1073.000
25.93062 1122.000
25.95090 1200.000
25.97118 1357.000
25.99146 1467.000
26.01174 1574.000
26.03202 1705.000
26.05230 1971.000
26.07258 2028.000
26.09286 2184.000
26.11314 2310.000
26.13342 2218.000
26.15370 2266.000
26.17398 2065.000
26.19426 1950.000
26.21454 1899.000
26.23482 1658.000
26.25510 1571.000
26.27538 1451.000
26.29566 1304.000
26.31594 1235.000
26.33622 1220.000
26.35650 1180.000
26.37678 1206.000
26.39706 1234.000
26.41734 1276.000
26.43762 1330.000
26.45790 1384.000
26.47818 1409.000
26.49846 1463.000
26.51874 1598.000
26.53902 1561.000
26.55930 1615.000
26.57958 1741.000
26.59986 1862.000
26.62014 1715.000
26.64042 1868.000
26.66070 1923.000
26.68098 1771.000
26.70126 1845.000
26.72154 1749.000
26.74182 1590.000
26.76210 1585.000
26.78238 1501.000
26.80266 1395.000
26.82294 1417.000
26.84322 1462.000
26.86350 1415.000
26.88378 1482.000
26.90406 1550.000
26.92434 1679.000
26.94462 1762.000
26.96490 1861.000
26.98518 1963.000
27.00546 2045.000
27.02574 2134.000
27.04602 2036.000
27.06630 2036.000
27.08658 2051.000
27.10686 1977.000
27.12714 1955.000
27.14742 1835.000
27.16770 1845.000
27.18798 1738.000
27.20826 1543.000
27.22854 1521.000
27.24882 1505.000
27.26910 1325.000
27.28938 1309.000
27.30966 1277.000
27.32994 1245.000
27.35022 1224.000
27.37050 1183.000
27.39078 1266.000
27.41106 1330.000
27.43134 1365.000
27.45162 1396.000
27.47190 1477.000
27.49218 1641.000
27.51246 1533.000
27.53274 1619.000
27.55302 1638.000
27.57330 1518.000
27.59358 1514.000
27.61386 1443.000
27.63414 1266.000
27.65442 1166.000
27.67470 1066.000
27.69498 884.000
27.71526 833.000
27.73555 781.000
27.75583 703.000
27.77611 744.000
27.79639 666.000
27.81667 645.000
27.83695 601.000
27.85723 649.000
27.87751 610.000
27.89779 615.000
27.91807 592.000
27.93835 588.000
27.95863 615.000
27.97891 616.000
27.99919 566.000
28.01947 589.000
28.03975 629.000
28.06003 621.000
28.08031 579.000
28.10059 621.000
28.12087 617.000
28.14115 648.000
28.16143 643.000
28.18171 655.000
28.20199 648.000
28.22227 678.000
28.24255 675.000
28.26283 699.000
28.28311 753.000
28.30339 794.000
28.32367 809.000
28.34395 850.000
28.36423 938.000
28.38451 991.000
28.40479 1093.000
28.42507 1110.000
28.44535 1150.000
28.46563 1226.000
28.48591 1233.000
28.50619 1309.000
28.52647 1384.000
28.54675 1455.000
28.56703 1475.000
28.58731 1452.000
28.60759 1505.000
28.62787 1420.000
28.64815 1452.000
28.66843 1396.000
28.68871 1384.000
28.70899 1230.000
28.72927 1117.000
28.74955 1079.000
28.76983 1049.000
28.79011 994.000
28.81039 931.000
28.83067 898.000
28.85095 878.000
28.87123 882.000
28.89151 901.000
28.91179 877.000
28.93207 910.000
28.95235 893.000
28.97263 972.000
28.99291 968.000
29.01319 1079.000
29.03347 1075.000
29.05375 1164.000
29.07403 1275.000
29.09431 1244.000
29.11459 1363.000
29.13487 1349.000
29.15515 1307.000
29.17543 1296.000
29.19571 1231.000
29.21599 1272.000
29.23627 1132.000
29.25655 1091.000
29.27683 1050.000
29.29711 1086.000
29.31739 1033.000
29.33767 1070.000
29.35795 1105.000
29.37823 1111.000
29.39851 1132.000
29.41879 1162.000
29.43907 1194.000
29.45935 1151.000
29.47963 1053.000
29.49991 1041.000
29.52019 996.000
29.54047 920.000
29.56075 986.000
29.58103 1028.000
29.60131 902.000
29.62159 954.000
29.64188 1032.000
29.66216 955.000
29.68244 969.000
29.70272 1017.000
29.72300 1058.000
29.74328 1077.000
29.76356 1151.000
29.78384 1212.000
29.80412 1306.000
29.82440 1289.000
29.84468 1286.000
29.86496 1304.000
29.88524 1377.000
29.90552 1250.000
29.92580 1346.000
29.94608 1308.000
29.96636 1347.000
29.98664 1297.000
30.00692 1256.000
30.02720 1205.000
30.04748 1258.000
30.06776 1199.000
30.08804 1219.000
30.10832 1238.000
30.12860 1194.000
30.14888 1119.000
30.16916 1066.000
30.18944 1082.000
30.20972 945.000
30.23000 915.000
30.25028 888.000
30.27056 847.000
30.29084 766.000
30.31112 844.000
30.33140 790.000
30.35168 864.000
30.37196 851.000
30.39224 906.000
30.41252 924.000
30.43280 1041.000
30.45308 1020.000
30.47336 1131.000
30.49364 1214.000
30.51392 1079.000
30.53420 1151.000
30.55448 985.000
30.57476 991.000
30.59504 907.000
30.61532 818.000
30.63560 746.000
30.65588 764.000
30.67616 661.000
30.69644 653.000
30.71672 566.000
30.73700 567.000
30.75728 559.000
30.77756 596.000
30.79784 583.000
30.81812 514.000
30.83840 524.000
30.85868 552.000
30.87896 548.000
30.89924 583.000
30.91952 597.000
30.93980 630.000
30.96008 599.000
30.98036 637.000
31.00064 675.000
31.02092 658.000
31.04120 697.000
31.06148 774.000
31.08176 816.000
31.10204 883.000
31.12232 841.000
31.14260 876.000
31.16288 967.000
31.18316 921.000
31.20344 933.000
31.22372 923.000
31.24400 959.000
31.26428 907.000
31.28456 843.000
31.30484 824.000
31.32512 829.000
31.34540 763.000
31.36568 770.000
31.38596 772.000
31.40624 683.000
31.42652 668.000
31.44680 618.000
31.46708 593.000
31.48736 578.000
31.50764 626.000
31.52792 609.000
31.54821 655.000
31.56849 683.000
31.58877 612.000
31.60905 659.000
31.62933 677.000
31.64961 661.000
31.66989 728.000
31.69017 744.000
31.71045 754.000
31.73073 783.000
31.75101 782.000
31.77129 791.000
31.79157 812.000
31.81185 808.000
31.83213 754.000
31.85241 780.000
31.87269 855.000
31.89297 819.000
31.91325 779.000
31.93353 821.000
31.95381 798.000
31.97409 884.000
31.99437 834.000
32.01465 856.000
32.03493 826.000
32.05521 894.000
32.07549 861.000
32.09577 866.000
32.11605 845.000
32.13633 816.000
32.15661 790.000
32.17689 806.000
32.19717 773.000
32.21745 753.000
32.23773 707.000
32.25801 710.000
32.27829 723.000
32.29857 715.000
32.31885 660.000
32.33913 693.000
32.35941 673.000
32.37969 666.000
32.39997 645.000
32.42025 701.000
32.44053 695.000
32.46081 618.000
32.48109 657.000
32.50137 596.000
32.52165 636.000
32.54193 568.000
32.56221 556.000
32.58249 541.000
32.60277 576.000
32.62305 585.000
32.64333 506.000
32.66361 611.000
32.68389 541.000
32.70417 544.000
32.72445 626.000
32.74473 638.000
32.76501 657.000
32.78529 623.000
32.80557 680.000
32.82585 704.000
32.84613 696.000
32.86641 670.000
32.88669 659.000
32.90697 713.000
32.92725 716.000
32.94753 695.000
32.96781 714.000
32.98809 747.000
33.00837 748.000
33.02865 787.000
33.04893 782.000
33.06921 786.000
33.08949 822.000
33.10977 780.000
33.13005 770.000
33.15033 777.000
33.17061 733.000
33.19089 745.000
33.21117 732.000
33.23145 730.000
33.25173 704.000
33.27201 771.000
33.29229 809.000
33.31257 808.000
33.33285 878.000
33.35313 862.000
33.37341 933.000
33.39369 918.000
33.41397 945.000
33.43425 916.000
33.45454 936.000
33.47482 855.000
33.49510 822.000
33.51538 770.000
33.53566 789.000
33.55594 740.000
33.57622 682.000
33.59650 662.000
33.61678 622.000
33.63706 631.000
33.65734 620.000
33.67762 651.000
33.69790 647.000
33.71818 647.000
33.73846 572.000
33.75874 614.000
33.77902 602.000
33.79930 598.000
33.81958 645.000
33.83986 607.000
33.86014 655.000
33.88042 583.000
33.90070 640.000
33.92098 690.000
33.94126 723.000
33.96154 688.000
33.98182 711.000
34.00210 716.000
34.02238 755.000
34.04266 732.000
34.06294 785.000
34.08322 723.000
34.10350 762.000
34.12378 762.000
34.14406 729.000
34.16434 750.000
34.18462 707.000
34.20490 782.000
34.22518 803.000
34.24546 773.000
34.26574 777.000
34.28602 759.000
34.30630 756.000
34.32658 780.000
34.34686 760.000
34.36714 702.000
34.38742 754.000
34.40770 827.000
34.42798 810.000
34.44826 804.000
34.46854 879.000
34.48882 956.000
34.50910 1019.000
34.52938 1106.000
34.54966 1191.000
34.56994 1201.000
34.59022 1348.000
34.61050 1432.000
34.63078 1521.000
34.65106 1534.000
34.67134 1480.000
34.69162 1432.000
34.71190 1352.000
34.73218 1372.000
34.75246 1205.000
34.77274 1175.000
34.79302 1111.000
34.81330 1041.000
34.83358 947.000
34.85386 980.000
34.87414 1033.000
34.89442 979.000
34.91470 1055.000
34.93498 1112.000
34.95526 1116.000
34.97554 1146.000
34.99582 1164.000
35.01610 1186.000
35.03638 1190.000
35.05666 1122.000
35.07694 1124.000
35.09722 1045.000
35.11750 957.000
35.13778 898.000
35.15806 923.000
35.17834 860.000
35.19862 761.000
35.21890 812.000
35.23918 724.000
35.25946 728.000
35.27974 712.000
35.30002 737.000
35.32030 716.000
35.34058 731.000
35.36087 729.000
35.38115 717.000
35.40143 741.000
35.42171 680.000
35.44199 653.000
35.46227 692.000
35.48255 721.000
35.50283 701.000
35.52311 703.000
35.54339 662.000
35.56367 667.000
35.58395 706.000
35.60423 772.000
35.62451 781.000
35.64479 744.000
35.66507 722.000
35.68535 655.000
35.70563 689.000
35.72591 680.000
35.74619 666.000
35.76647 625.000
35.78675 641.000
35.80703 615.000
35.82731 578.000
35.84759 611.000
35.86787 518.000
35.88815 502.000
35.90843 552.000
35.92871 564.000
35.94899 527.000
35.96927 513.000
35.98955 484.000
36.00983 530.000
36.03011 600.000
36.05039 530.000
36.07067 563.000
36.09095 558.000
36.11123 609.000
36.13151 581.000
36.15179 631.000
36.17207 660.000
36.19235 672.000
36.21263 637.000
36.23291 663.000
36.25319 622.000
36.27347 732.000
36.29375 754.000
36.31403 798.000
36.33431 798.000
36.35459 749.000
36.37487 780.000
36.39515 765.000
36.41543 755.000
36.43571 764.000
36.45599 758.000
36.47627 759.000
36.49655 787.000
36.51683 756.000
36.53711 744.000
36.55739 826.000
36.57767 773.000
36.59795 811.000
36.61823 823.000
36.63851 886.000
36.65879 923.000
36.67907 956.000
36.69935 946.000
36.71963 949.000
36.73991 965.000
36.76019 970.000
36.78047 988.000
36.80075 962.000
36.82103 988.000
36.84131 1040.000
36.86159 998.000
36.88187 1057.000
36.90215 970.000
36.92243 996.000
36.94271 1014.000
36.96299 956.000
36.98327 964.000
37.00355 927.000
37.02383 857.000
37.04411 879.000
37.06439 855.000
37.08467 849.000
37.10495 834.000
37.12523 831.000
37.14551 785.000
37.16579 783.000
37.18607 819.000
37.20635 782.000
37.22663 788.000
37.24691 746.000
37.26720 741.000
37.28748 741.000
37.30776 742.000
37.32804 686.000
37.34832 707.000
37.36860 709.000
37.38888 687.000
37.40916 687.000
37.42944 687.000
37.44972 659.000
37.47000 656.000
37.49028 630.000
37.51056 598.000
37.53084 632.000
37.55112 611.000
37.57140 605.000
37.59168 649.000
37.61196 634.000
37.63224 616.000
37.65252 626.000
37.67280 638.000
37.69308 641.000
37.71336 667.000
37.73364 684.000
37.75392 682.000
37.77420 678.000
37.79448 718.000
37.81476 697.000
37.83504 707.000
37.85532 740.000
37.87560 736.000
37.89588 742.000
37.91616 782.000
37.93644 785.000
37.95672 825.000
37.97700 775.000
37.99728 826.000
38.01756 862.000
38.03784 921.000
38.05812 894.000
38.07840 919.000
38.09868 875.000
38.11896 850.000
38.13924 846.000
38.15952 781.000
38.17980 803.000
38.20008 712.000
38.22036 754.000
38.24064 666.000
38.26092 600.000
38.28120 651.000
38.30148 609.000
38.32176 616.000
38.34204 654.000
38.36232 616.000
38.38260 610.000
38.40288 646.000
38.42316 681.000
38.44344 713.000
38.46372 691.000
38.48400 720.000
38.50428 752.000
38.52456 722.000
38.54484 690.000
38.56512 720.000
38.58540 694.000
38.60568 713.000
38.62596 656.000
38.64624 646.000
38.66652 662.000
38.68680 618.000
38.70708 661.000
38.72736 601.000
38.74764 639.000
38.76792 620.000
38.78820 596.000
38.80848 566.000
38.82876 565.000
38.84904 565.000
38.86932 585.000
38.88960 575.000
38.90988 615.000
38.93016 593.000
38.95044 503.000
38.97072 545.000
38.99100 558.000
39.01128 576.000
39.03156 550.000
39.05184 559.000
39.07212 603.000
39.09240 614.000
39.11268 579.000
39.13296 613.000
39.15324 640.000
39.17353 622.000
39.19381 622.000
39.21409 618.000
39.23437 588.000
39.25465 603.000
39.27493 612.000
39.29521 611.000
39.31549 591.000
39.33577 604.000
39.35605 618.000
39.37633 662.000
39.39661 645.000
39.41689 659.000
39.43717 646.000
39.45745 659.000
39.47773 662.000
39.49801 668.000
39.51829 719.000
39.53857 729.000
39.55885 758.000
39.57913 741.000
39.59941 780.000
39.61969 763.000
39.63997 815.000
39.66025 866.000
39.68053 872.000
39.70081 836.000
39.72109 742.000
39.74137 791.000
39.76165 851.000
39.78193 796.000
39.80221 783.000
39.82249 725.000
39.84277 716.000
39.86305 744.000
39.88333 690.000
39.90361 675.000
39.92389 690.000
39.94417 693.000
39.96445 688.000
39.98473 691.000
40.00501 649.000
40.02529 677.000
40.04557 699.000
40.06585 717.000
40.08613 767.000
40.10641 743.000
40.12669 780.000
40.14697 831.000
40.16725 828.000
40.18753 877.000
40.20781 959.000
40.22809 905.000
40.24837 923.000
40.26865 925.000
40.28893 1044.000
40.30921 1005.000
40.32949 925.000
40.34977 1018.000
40.37005 973.000
40.39033 971.000
40.41061 921.000
40.43089 979.000
40.45117 977.000
40.47145 896.000
40.49173 856.000
40.51201 885.000
40.53229 844.000
40.55257 832.000
40.57285 783.000
40.59313 771.000
40.61341 783.000
40.63369 761.000
40.65397 699.000
40.67425 688.000
40.69453 631.000
40.71481 681.000
40.73509 668.000
40.75537 642.000
40.77565 602.000
40.79593 570.000
40.81621 591.000
40.83649 618.000
40.85677 618.000
40.87705 570.000
40.89733 628.000
40.91761 609.000
40.93789 556.000
40.95817 638.000
40.97845 608.000
40.99873 647.000
41.01901 624.000
41.03929 647.000
41.05957 693.000
41.07986 669.000
41.10014 670.000
41.12042 634.000
41.14070 659.000
41.16098 627.000
41.18126 630.000
41.20154 633.000
41.22182 637.000
41.24210 639.000
41.26238 631.000
41.28266 682.000
41.30294 690.000
41.32322 699.000
41.34350 694.000
41.36378 704.000
41.38406 741.000
41.40434 780.000
41.42462 736.000
41.44490 831.000
41.46518 789.000
41.48546 767.000
41.50574 763.000
41.52602 782.000
41.54630 831.000
41.56658 793.000
41.58686 765.000
41.60714 794.000
41.62742 818.000
41.64770 813.000
41.66798 795.000
41.68826 858.000
41.70854 780.000
41.72882 860.000
41.74910 886.000
41.76938 880.000
41.78966 874.000
41.80994 900.000
41.83022 927.000
41.85050 908.000
41.87078 880.000
41.89106 959.000
41.91134 832.000
41.93162 775.000
41.95190 746.000
41.97218 733.000
41.99246 679.000
42.01274 688.000
42.03302 628.000
42.05330 596.000
42.07358 592.000
42.09386 592.000
42.11414 529.000
42.13442 534.000
42.15470 553.000
42.17498 562.000
42.19526 550.000
42.21554 556.000
42.23582 613.000
42.25610 531.000
42.27638 542.000
42.29666 616.000
42.31694 560.000
42.33722 549.000
42.35750 587.000
42.37778 594.000
42.39806 561.000
42.41834 547.000
42.43862 554.000
42.45890 562.000
42.47918 572.000
42.49946 515.000
42.51974 545.000
42.54002 533.000
42.56030 541.000
42.58058 526.000
42.60086 517.000
42.62114 532.000
42.64142 546.000
42.66170 522.000
42.68198 535.000
42.70226 545.000
42.72254 490.000
42.74282 495.000
42.76310 522.000
42.78338 507.000
42.80366 567.000
42.82394 520.000
42.84422 536.000
42.86450 492.000
42.88478 545.000
42.90506 539.000
42.92534 528.000
42.94562 516.000
42.96590 509.000
42.98619 590.000
43.00647 549.000
43.02675 549.000
43.04703 591.000
43.06731 561.000
43.08759 552.000
43.10787 595.000
43.12815 584.000
43.14843 619.000
43.16871 615.000
43.18899 672.000
43.20927 683.000
43.22955 668.000
43.24983 713.000
43.27011 707.000
43.29039 721.000
43.31067 755.000
43.33095 765.000
43.35123 766.000
43.37151 773.000
43.39179 759.000
43.41207 750.000
43.43235 734.000
43.45263 738.000
43.47291 750.000
43.49319 788.000
43.51347 747.000
43.53375 796.000
43.55403 724.000
43.57431 745.000
43.59459 788.000
43.61487 813.000
43.63515 787.000
43.65543 732.000
43.67571 761.000
43.69599 722.000
43.71627 714.000
43.73655 750.000
43.75683 727.000
43.77711 758.000
43.79739 736.000
43.81767 738.000
43.83795 736.000
43.85823 756.000
43.87851 764.000
43.89879 738.000
43.91907 743.000
43.93935 768.000
43.95963 812.000
43.97991 798.000
44.00019 813.000
44.02047 817.000
44.04075 812.000
44.06103 823.000
44.08131 802.000
44.10159 749.000
44.12187 757.000
44.14215 750.000
44.16243 783.000
44.18271 719.000
44.20299 748.000
44.22327 744.000
44.24355 717.000
44.26383 715.000
44.28411 738.000
44.30439 655.000
44.32467 676.000
44.34495 676.000
44.36523 669.000
44.38551 678.000
44.40579 657.000
44.42607 619.000
44.44635 581.000
44.46663 635.000
44.48691 560.000
44.50719 584.000
44.52747 586.000
44.54775 560.000
44.56803 614.000
44.58831 595.000
44.60859 550.000
44.62887 624.000
44.64915 557.000
44.66943 567.000
44.68971 542.000
44.70999 592.000
44.73027 591.000
44.75055 612.000
44.77083 591.000
44.79111 628.000
44.81139 579.000
44.83167 620.000
44.85195 582.000
44.87223 685.000
44.89251 675.000
44.91280 655.000
44.93308 628.000
44.95336 672.000
44.97364 632.000
44.99392 636.000
45.01420 630.000
45.03448 639.000
45.05476 597.000
45.07504 623.000
45.09532 615.000
45.11560 655.000
45.13588 639.000
45.15616 650.000
45.17644 588.000
45.19672 646.000
45.21700 639.000
45.23728 615.000
45.25756 595.000
45.27784 591.000
45.29812 576.000
45.31840 579.000
45.33868 625.000
45.35896 558.000
45.37924 556.000
45.39952 536.000
45.41980 577.000
45.44008 592.000
45.46036 576.000
45.48064 568.000
45.50092 624.000
45.52120 582.000
45.54148 600.000
45.56176 591.000
45.58204 635.000
45.60232 582.000
45.62260 629.000
45.64288 603.000
45.66316 635.000
45.68344 594.000
45.70372 628.000
45.72400 657.000
45.74428 627.000
45.76456 627.000
45.78484 652.000
45.80512 649.000
45.82540 628.000
45.84568 639.000
45.86596 652.000
45.88624 629.000
45.90652 639.000
45.92680 612.000
45.94708 590.000
45.96736 635.000
45.98764 581.000
46.00792 609.000
46.02820 550.000
46.04848 547.000
46.06876 555.000
46.08904 610.000
46.10932 532.000
46.12960 553.000
46.14988 561.000
46.17016 561.000
46.19044 557.000
46.21072 560.000
46.23100 607.000
46.25128 610.000
46.27156 596.000
46.29184 587.000
46.31212 626.000
46.33240 628.000
46.35268 588.000
46.37296 624.000
46.39324 649.000
46.41352 606.000
46.43380 632.000
46.45408 642.000
46.47436 641.000
46.49464 658.000
46.51492 697.000
46.53520 693.000
46.55548 699.000
46.57576 699.000
46.59604 653.000
46.61632 706.000
46.63660 613.000
46.65688 685.000
46.67716 638.000
46.69744 641.000
46.71772 676.000
46.73800 657.000
46.75828 602.000
46.77856 636.000
46.79884 624.000
46.81913 607.000
46.83941 577.000
46.85969 628.000
46.87997 606.000
46.90025 616.000
46.92053 581.000
46.94081 629.000
46.96109 539.000
46.98137 566.000
47.00165 617.000
47.02193 565.000
47.04221 539.000
47.06249 557.000
47.08277 582.000
47.10305 587.000
47.12333 569.000
47.14361 596.000
47.16389 541.000
47.18417 573.000
47.20445 658.000
47.22473 595.000
47.24501 613.000
47.26529 637.000
47.28557 645.000
47.30585 708.000
47.32613 651.000
47.34641 645.000
47.36669 671.000
47.38697 689.000
47.40725 658.000
47.42753 686.000
47.44781 647.000
47.46809 664.000
47.48837 670.000
47.50865 678.000
47.52893 682.000
47.54921 665.000
47.56949 676.000
47.58977 646.000
47.61005 655.000
47.63033 651.000
47.65061 668.000
47.67089 663.000
47.69117 665.000
47.71145 645.000
47.73173 638.000
47.75201 567.000
47.77229 609.000
47.79257 612.000
47.81285 645.000
47.83313 564.000
47.85341 598.000
47.87369 596.000
47.89397 611.000
47.91425 640.000
47.93453 604.000
47.95481 554.000
47.97509 585.000
47.99537 623.000
48.01565 571.000
48.03593 583.000
48.05621 595.000
48.07649 567.000
48.09677 609.000
48.11705 590.000
48.13733 551.000
48.15761 564.000
48.17789 564.000
48.19817 547.000
48.21845 539.000
48.23873 538.000
48.25901 535.000
48.27929 554.000
48.29957 533.000
48.31985 508.000
48.34013 529.000
48.36041 488.000
48.38069 514.000
48.40097 528.000
48.42125 533.000
48.44153 553.000
48.46181 522.000
48.48209 480.000
48.50237 509.000
48.52265 529.000
48.54293 525.000
48.56321 560.000
48.58349 549.000
48.60377 573.000
48.62405 488.000
48.64433 524.000
48.66461 525.000
48.68489 544.000
48.70517 516.000
48.72546 535.000
48.74574 516.000
48.76602 488.000
48.78630 479.000
48.80658 511.000
48.82686 513.000
48.84714 467.000
48.86742 487.000
48.88770 527.000
48.90798 489.000
48.92826 445.000
48.94854 471.000
48.96882 488.000
48.98910 446.000
49.00938 447.000
49.02966 484.000
49.04994 490.000
49.07022 492.000
49.09050 493.000
49.11078 492.000
49.13106 481.000
49.15134 504.000
49.17162 497.000
49.19190 492.000
49.21218 539.000
49.23246 574.000
49.25274 493.000
49.27302 512.000
49.29330 496.000
49.31358 502.000
49.33386 528.000
49.35414 565.000
49.37442 504.000
49.39470 521.000
49.41498 550.000
49.43526 525.000
49.45554 547.000
49.47582 510.000
49.49610 506.000
49.51638 548.000
49.53666 503.000
49.55694 483.000
49.57722 510.000
49.59750 515.000
49.61778 541.000
49.63806 519.000
49.65834 520.000
49.67862 542.000
49.69890 550.000
49.71918 478.000
49.73946 547.000
49.75974 570.000
49.78002 561.000
49.80030 530.000
49.82058 572.000
49.84086 533.000
49.86114 483.000
49.88142 549.000
49.90170 488.000
49.92198 553.000
49.94226 512.000
49.96254 517.000
49.98282 539.000
50.00310 508.000
