5.00155 874.000
5.02183 866.000
5.04211 851.000
5.06239 806.000
5.08267 779.000
5.10295 817.000
5.12323 824.000
5.14351 765.000
5.16379 747.000
5.18407 751.000
5.20435 773.000
5.22463 791.000
5.24491 742.000
5.26519 737.000
5.28547 760.000
5.30575 760.000
5.32603 772.000
5.34631 699.000
5.36659 700.000
5.38687 696.000
5.40715 709.000
5.42743 669.000
5.44771 667.000
5.46799 725.000
5.48827 642.000
5.50855 658.000
5.52883 692.000
5.54911 580.000
5.56939 646.000
5.58967 636.000
5.60995 606.000
5.63023 660.000
5.65051 676.000
5.67079 592.000
5.69107 612.000
5.71135 623.000
5.73163 600.000
5.75191 602.000
5.77219 635.000
5.79247 562.000
5.81275 598.000
5.83303 587.000
5.85331 608.000
5.87359 565.000
5.89387 544.000
5.91415 544.000
5.93443 586.000
5.95471 559.000
5.97499 542.000
5.99527 558.000
6.01555 538.000
6.03583 525.000
6.05611 526.000
6.07639 544.000
6.09667 538.000
6.11695 566.000
6.13723 557.000
6.15751 547.000
6.17779 563.000
6.19807 578.000
6.21835 568.000
6.23863 587.000
6.25891 641.000
6.27919 666.000
6.29947 677.000
6.31975 732.000
6.34003 713.000
6.36031 850.000
6.38059 875.000
6.40087 1000.000
6.42115 1079.000
6.44143 1083.000
6.46171 1100.000
6.48199 971.000
6.50227 864.000
6.52255 773.000
6.54283 694.000
6.56311 536.000
6.58339 569.000
6.60367 537.000
6.62395 498.000
6.64423 515.000
6.66451 513.000
6.68479 527.000
6.70507 526.000
6.72536 530.000
6.74564 560.000
6.76592 554.000
6.78620 610.000
6.80648 633.000
6.82676 668.000
6.84704 614.000
6.86732 608.000
6.88760 561.000
6.90788 515.000
6.92816 539.000
6.94844 453.000
6.96872 448.000
6.98900 448.000
7.00928 477.000
7.02956 453.000
7.04984 428.000
7.07012 411.000
7.09040 456.000
7.11068 459.000
7.13096 446.000
7.15124 418.000
7.17152 459.000
7.19180 410.000
7.21208 448.000
7.23236 411.000
7.25264 442.000
7.27292 414.000
7.29320 370.000
7.31348 392.000
7.33376 366.000
7.35404 394.000
7.37432 389.000
7.39460 376.000
7.41488 414.000
7.43516 395.000
7.45544 415.000
7.47572 470.000
7.49600 445.000
7.51628 415.000
7.53656 424.000
7.55684 452.000
7.57712 415.000
7.59740 379.000
7.61768 427.000
7.63796 423.000
7.65824 374.000
7.67852 430.000
7.69880 414.000
7.71908 434.000
7.73936 425.000
7.75964 430.000
7.77992 437.000
7.80020 422.000
7.82048 467.000
7.84076 428.000
7.86104 406.000
7.88132 452.000
7.90160 412.000
7.92188 440.000
7.94216 406.000
7.96244 426.000
7.98272 403.000
8.00300 420.000
8.02328 394.000
8.04356 433.000
8.06384 491.000
8.08412 471.000
8.10440 490.000
8.12468 476.000
8.14496 440.000
8.16524 474.000
8.18552 522.000
8.20580 490.000
8.22608 497.000
8.24636 502.000
8.26664 558.000
8.28692 618.000
8.30720 636.000
8.32748 685.000
8.34776 791.000
8.36804 798.000
8.38832 933.000
8.40860 920.000
8.42888 1037.000
8.44916 1148.000
8.46944 1252.000
8.48972 1507.000
8.51000 1870.000
8.53028 2321.000
8.55056 2988.000
8.57084 3785.000
8.59112 4701.000
8.61140 5759.000
8.63168 6652.000
8.65197 7175.000
8.67225 7280.000
8.69253 6545.000
8.71281 5399.000
8.73309 3989.000
8.75337 2788.000
8.77365 1805.000
8.79393 1428.000
8.81421 1086.000
8.83449 954.000
8.85477 837.000
8.87505 773.000
8.89533 762.000
8.91561 687.000
8.93589 648.000
8.95617 678.000
8.97645 624.000
8.99673 591.000
9.01701 585.000
9.03729 585.000
9.05757 558.000
9.07785 552.000
9.09813 525.000
9.11841 546.000
9.13869 565.000
9.15897 600.000
9.17925 560.000
9.19953 605.000
9.21981 571.000
9.24009 687.000
9.26037 721.000
9.28065 729.000
9.30093 795.000
9.32121 947.000
9.34149 1068.000
9.36177 1284.000
9.38205 1550.000
9.40233 1955.000
9.42261 2450.000
9.44289 3140.000
9.46317 3598.000
9.48345 4103.000
9.50373 4463.000
9.52401 4383.000
9.54429 3892.000
9.56457 3217.000
9.58485 2487.000
9.60513 1770.000
9.62541 1397.000
9.64569 1181.000
9.66597 1036.000
9.68625 1154.000
9.70653 1234.000
9.72681 1359.000
9.74709 1671.000
9.76737 2085.000
9.78765 2641.000
9.80793 3390.000
9.82821 4100.000
9.84849 4860.000
9.86877 5228.000
9.88905 5159.000
9.90933 4881.000
9.92961 3977.000
9.94989 2994.000
9.97017 2064.000
9.99045 1481.000
10.01073 1079.000
10.03101 955.000
10.05129 828.000
10.07157 808.000
10.09185 791.000
10.11213 728.000
10.13241 650.000
10.15269 601.000
10.17297 594.000
10.19325 526.000
10.21353 553.000
10.23381 536.000
10.25409 507.000
10.27437 539.000
10.29465 529.000
10.31493 582.000
10.33521 544.000
10.35549 637.000
10.37577 575.000
10.39605 556.000
10.41633 660.000
10.43661 649.000
10.45689 603.000
10.47717 645.000
10.49745 631.000
10.51773 573.000
10.53801 522.000
10.55830 569.000
10.57858 575.000
10.59886 547.000
10.61914 517.000
10.63942 541.000
10.65970 550.000
10.67998 519.000
10.70026 558.000
10.72054 564.000
10.74082 633.000
10.76110 646.000
10.78138 653.000
10.80166 789.000
10.82194 957.000
10.84222 1146.000
10.86250 1364.000
10.88278 1824.000
10.90306 2279.000
10.92334 2741.000
10.94362 3139.000
10.96390 3410.000
10.98418 3227.000
11.00446 2812.000
11.02474 2334.000
11.04502 1586.000
11.06530 1089.000
11.08558 914.000
11.10586 717.000
11.12614 605.000
11.14642 571.000
11.16670 534.000
11.18698 498.000
11.20726 533.000
11.22754 493.000
11.24782 515.000
11.26810 485.000
11.28838 399.000
11.30866 453.000
11.32894 446.000
11.34922 460.000
11.36950 473.000
11.38978 410.000
11.41006 435.000
11.43034 418.000
11.45062 427.000
11.47090 451.000
11.49118 440.000
11.51146 420.000
11.53174 404.000
11.55202 430.000
11.57230 397.000
11.59258 443.000
11.61286 394.000
11.63314 416.000
11.65342 421.000
11.67370 442.000
11.69398 436.000
11.71426 437.000
11.73454 409.000
11.75482 409.000
11.77510 408.000
11.79538 448.000
11.81566 439.000
11.83594 348.000
11.85622 400.000
11.87650 415.000
11.89678 427.000
11.91706 396.000
11.93734 423.000
11.95762 390.000
11.97790 358.000
11.99818 411.000
12.01846 385.000
12.03874 419.000
12.05902 384.000
12.07930 392.000
12.09958 385.000
12.11986 407.000
12.14014 436.000
12.16042 420.000
12.18070 433.000
12.20098 430.000
12.22126 405.000
12.24154 455.000
12.26182 415.000
12.28210 413.000
12.30238 438.000
12.32266 473.000
12.34294 491.000
12.36322 506.000
12.38350 503.000
12.40378 512.000
12.42406 504.000
12.44434 499.000
12.46463 443.000
12.48491 457.000
12.50519 448.000
12.52547 455.000
12.54575 400.000
12.56603 416.000
12.58631 413.000
12.60659 423.000
12.62687 361.000
12.64715 404.000
12.66743 423.000
12.68771 405.000
12.70799 389.000
12.72827 399.000
12.74855 386.000
12.76883 449.000
12.78911 467.000
12.80939 413.000
12.82967 485.000
12.84995 479.000
12.87023 460.000
12.89051 468.000
12.91079 502.000
12.93107 538.000
12.95135 590.000
12.97163 608.000
12.99191 690.000
13.01219 692.000
13.03247 633.000
13.05275 673.000
13.07303 601.000
13.09331 588.000
13.11359 583.000
13.13387 646.000
13.15415 618.000
13.17443 721.000
13.19471 773.000
13.21499 902.000
13.23527 1051.000
13.25555 1168.000
13.27583 1183.000
13.29611 1188.000
13.31639 1147.000
13.33667 1064.000
13.35695 873.000
13.37723 735.000
13.39751 693.000
13.41779 636.000
13.43807 572.000
13.45835 620.000
13.47863 664.000
13.49891 717.000
13.51919 777.000
13.53947 764.000
13.55975 965.000
13.58003 1058.000
13.60031 1283.000
13.62059 1649.000
13.64087 2035.000
13.66115 2373.000
13.68143 3025.000
13.70171 3367.000
13.72199 3494.000
13.74227 3597.000
13.76255 3561.000
13.78283 3436.000
13.80311 3402.000
13.82339 3153.000
13.84367 2940.000
13.86395 2549.000
13.88423 2202.000
13.90451 1532.000
13.92479 1227.000
13.94507 900.000
13.96535 758.000
13.98563 722.000
14.00591 647.000
14.02619 605.000
14.04647 582.000
14.06675 567.000
14.08703 572.000
14.10731 554.000
14.12759 522.000
14.14787 457.000
14.16815 468.000
14.18843 490.000
14.20871 453.000
14.22899 492.000
14.24927 460.000
14.26955 466.000
14.28983 442.000
14.31011 453.000
14.33039 459.000
14.35067 403.000
14.37096 421.000
14.39124 449.000
14.41152 499.000
14.43180 519.000
14.45208 431.000
14.47236 486.000
14.49264 489.000
14.51292 460.000
14.53320 489.000
14.55348 522.000
14.57376 506.000
14.59404 479.000
14.61432 476.000
14.63460 499.000
14.65488 561.000
14.67516 557.000
14.69544 562.000
14.71572 572.000
14.73600 561.000
14.75628 623.000
14.77656 684.000
14.79684 650.000
14.81712 762.000
14.83740 838.000
14.85768 1030.000
14.87796 1108.000
14.89824 1177.000
14.91852 1100.000
14.93880 1061.000
14.95908 928.000
14.97936 858.000
14.99964 697.000
15.01992 629.000
15.04020 602.000
15.06048 579.000
15.08076 477.000
15.10104 538.000
15.12132 537.000
15.14160 491.000
15.16188 516.000
15.18216 489.000
15.20244 492.000
15.22272 433.000
15.24300 524.000
15.26328 493.000
15.28356 489.000
15.30384 511.000
15.32412 501.000
15.34440 488.000
15.36468 507.000
15.38496 558.000
15.40524 562.000
15.42552 506.000
15.44580 580.000
15.46608 647.000
15.48636 648.000
15.50664 658.000
15.52692 790.000
15.54720 850.000
15.56748 986.000
15.58776 1171.000
15.60804 1261.000
15.62832 1393.000
15.64860 1365.000
15.66888 1402.000
15.68916 1228.000
15.70944 1155.000
15.72972 1108.000
15.75000 1033.000
15.77028 989.000
15.79056 974.000
15.81084 904.000
15.83112 843.000
15.85140 822.000
15.87168 938.000
15.89196 1014.000
15.91224 1133.000
15.93252 1325.000
15.95280 1561.000
15.97308 1884.000
15.99336 2337.000
16.01364 2972.000
16.03392 3858.000
16.05420 4543.000
16.07448 5189.000
16.09476 5530.000
16.11504 5397.000
16.13532 4859.000
16.15560 4036.000
16.17588 2945.000
16.19616 2140.000
16.21644 1651.000
16.23672 1403.000
16.25700 1253.000
16.27729 1146.000
16.29757 1140.000
16.31785 1204.000
16.33813 1317.000
16.35841 1368.000
16.37869 1575.000
16.39897 1768.000
16.41925 1931.000
16.43953 1920.000
16.45981 1943.000
16.48009 1893.000
16.50037 1812.000
16.52065 1706.000
16.54093 1695.000
16.56121 1914.000
16.58149 2220.000
16.60177 2541.000
16.62205 3243.000
16.64233 3855.000
16.66261 4291.000
16.68289 4734.000
16.70317 4613.000
16.72345 4209.000
16.74373 3665.000
16.76401 2846.000
16.78429 2230.000
16.80457 1684.000
16.82485 1366.000
16.84513 1187.000
16.86541 1051.000
16.88569 1042.000
16.90597 960.000
16.92625 969.000
16.94653 856.000
16.96681 893.000
16.98709 929.000
17.00737 903.000
17.02765 878.000
17.04793 972.000
17.06821 995.000
17.08849 1047.000
17.10877 1155.000
17.12905 1305.000
17.14933 1375.000
17.16961 1554.000
17.18989 1632.000
17.21017 1999.000
17.23045 2291.000
17.25073 2801.000
17.27101 3491.000
17.29129 4309.000
17.31157 5165.000
17.33185 6127.000
17.35213 6942.000
17.37241 6568.000
17.39269 6061.000
17.41297 5018.000
17.43325 3895.000
17.45353 2942.000
17.47381 2279.000
17.49409 1780.000
17.51437 1583.000
17.53465 1438.000
17.55493 1575.000
17.57521 1584.000
17.59549 1843.000
17.61577 2124.000
17.63605 2551.000
17.65633 3120.000
17.67661 3911.000
17.69689 5071.000
17.71717 6594.000
17.73745 8005.000
17.75773 9353.000
17.77801 10015.000
17.79829 9979.000
17.81857 8837.000
17.83885 6958.000
17.85913 5230.000
17.87941 3752.000
17.89969 2871.000
17.91997 2492.000
17.94025 2180.000
17.96053 2044.000
17.98081 1928.000
18.00109 1897.000
18.02137 1807.000
18.04165 1668.000
18.06193 1597.000
18.08221 1683.000
18.10249 1656.000
18.12277 1772.000
18.14305 1833.000
18.16333 1994.000
18.18362 2217.000
18.20390 2673.000
18.22418 3162.000
18.24446 3849.000
18.26474 4653.000
18.28502 5410.000
18.30530 6496.000
18.32558 7566.000
18.34586 8637.000
18.36614 9655.000
18.38642 10125.000
18.40670 9960.000
18.42698 9471.000
18.44726 8004.000
18.46754 6358.000
18.48782 4860.000
18.50810 3504.000
18.52838 2462.000
18.54866 1982.000
18.56894 1666.000
18.58922 1539.000
18.60950 1422.000
18.62978 1339.000
18.65006 1352.000
18.67034 1380.000
18.69062 1420.000
18.71090 1399.000
18.73118 1580.000
18.75146 1620.000
18.77174 1737.000
18.79202 1990.000
18.81230 2391.000
18.83258 2837.000
18.85286 3263.000
18.87314 3988.000
18.89342 4445.000
18.91370 4867.000
18.93398 4803.000
18.95426 4717.000
18.97454 4161.000
18.99482 3679.000
19.01510 3133.000
19.03538 2856.000
19.05566 2497.000
19.07594 2284.000
19.09622 2014.000
19.11650 1733.000
19.13678 1570.000
19.15706 1381.000
19.17734 1278.000
19.19762 1300.000
19.21790 1250.000
19.23818 1365.000
19.25846 1504.000
19.27874 1516.000
19.29902 1616.000
19.31930 1797.000
19.33958 1889.000
19.35986 1987.000
19.38014 2046.000
19.40042 2375.000
19.42070 2573.000
19.44098 2941.000
19.46126 3447.000
19.48154 3835.000
19.50182 4074.000
19.52210 4364.000
19.54238 4158.000
19.56266 3881.000
19.58294 3413.000
19.60322 2928.000
19.62350 2493.000
19.64378 2283.000
19.66406 2469.000
19.68434 2469.000
19.70462 2809.000
19.72490 3214.000
19.74518 3792.000
19.76546 4200.000
19.78574 4417.000
19.80602 4344.000
19.82630 4250.000
19.84658 3990.000
19.86686 3519.000
19.88714 3194.000
19.90742 3137.000
19.92770 3222.000
19.94798 3608.000
19.96826 4147.000
19.98854 5021.000
20.00882 5775.000
20.02910 6607.000
20.04938 7185.000
20.06966 7236.000
20.08995 6859.000
20.11023 5968.000
20.13051 4898.000
20.15079 4062.000
20.17107 3213.000
20.19135 2746.000
20.21163 2408.000
20.23191 2313.000
20.25219 2144.000
20.27247 2330.000
20.29275 2396.000
20.31303 2650.000
20.33331 2682.000
20.35359 2770.000
20.37387 2934.000
20.39415 2869.000
20.41443 2595.000
20.43471 2384.000
20.45499 2204.000
20.47527 2219.000
20.49555 2383.000
20.51583 2509.000
20.53611 2947.000
20.55639 3461.000
20.57667 4156.000
20.59695 4916.000
20.61723 5544.000
20.63751 6143.000
20.65779 6112.000
20.67807 5536.000
20.69835 4967.000
20.71863 3829.000
20.73891 2881.000
20.75919 2187.000
20.77947 1860.000
20.79975 1699.000
20.82003 1532.000
20.84031 1452.000
20.86059 1534.000
20.88087 1606.000
20.90115 1657.000
20.92143 1674.000
20.94171 1706.000
20.96199 1628.000
20.98227 1669.000
21.00255 1547.000
21.02283 1393.000
21.04311 1332.000
21.06339 1343.000
21.08367 1142.000
21.10395 1209.000
21.12423 1235.000
21.14451 1207.000
21.16479 1269.000
21.18507 1290.000
21.20535 1477.000
21.22563 1610.000
21.24591 1804.000
21.26619 1845.000
21.28647 1937.000
21.30675 2135.000
21.32703 2136.000
21.34731 2355.000
21.36759 2537.000
21.38787 2898.000
21.40815 3363.000
21.42843 3826.000
21.44871 4089.000
21.46899 4534.000
21.48927 4914.000
21.50955 4719.000
21.52983 4640.000
21.55011 4408.000
21.57039 4616.000
21.59067 4902.000
21.61095 5384.000
21.63123 6260.000
21.65151 7153.000
21.67179 8113.000
21.69207 8541.000
21.71235 8661.000
21.73263 8036.000
21.75291 7040.000
21.77319 5622.000
21.79347 4313.000
21.81375 3286.000
21.83403 2553.000
21.85431 2104.000
21.87459 1757.000
21.89487 1619.000
21.91515 1644.000
21.93543 1573.000
21.95571 1671.000
21.97599 1739.000
21.99628 1712.000
22.01656 1747.000
22.03684 1850.000
22.05712 2018.000
22.07740 2081.000
22.09768 2206.000
22.11796 2507.000
22.13824 2825.000
22.15852 3275.000
22.17880 3620.000
22.19908 3687.000
22.21936 3765.000
22.23964 3665.000
22.25992 3250.000
22.28020 2594.000
22.30048 2127.000
22.32076 1767.000
22.34104 1482.000
22.36132 1337.000
22.38160 1174.000
22.40188 1125.000
22.42216 1173.000
22.44244 1092.000
22.46272 1206.000
22.48300 1233.000
22.50328 1283.000
22.52356 1377.000
22.54384 1423.000
22.56412 1447.000
22.58440 1526.000
22.60468 1538.000
22.62496 1572.000
22.64524 1689.000
22.66552 1651.000
22.68580 1937.000
22.70608 2074.000
22.72636 2110.000
22.74664 2532.000
22.76692 2368.000
22.78720 2378.000
22.80748 2260.000
22.82776 2057.000
22.84804 1686.000
22.86832 1487.000
22.88860 1315.000
22.90888 1255.000
22.92916 1108.000
22.94944 1155.000
22.96972 1040.000
22.99000 1025.000
23.01028 1135.000
23.03056 1217.000
23.05084 1264.000
23.07112 1302.000
23.09140 1321.000
23.11168 1291.000
23.13196 1269.000
23.15224 1213.000
23.17252 1136.000
23.19280 1007.000
23.21308 993.000
23.23336 1031.000
23.25364 997.000
23.27392 1041.000
23.29420 1119.000
23.31448 1177.000
23.33476 1347.000
23.35504 1464.000
23.37532 1668.000
23.39560 1819.000
23.41588 1963.000
23.43616 2258.000
23.45644 2379.000
23.47672 2339.000
23.49700 2203.000
23.51728 2024.000
23.53756 1727.000
23.55784 1597.000
23.57812 1458.000
23.59840 1388.000
23.61868 1336.000
23.63896 1376.000
23.65924 1372.000
23.67952 1549.000
23.69980 1556.000
23.72008 1610.000
23.74036 1581.000
23.76064 1363.000
23.78092 1392.000
23.80120 1293.000
23.82148 1267.000
23.84176 1275.000
23.86204 1280.000
23.88232 1425.000
23.90261 1559.000
23.92289 1646.000
23.94317 1709.000
23.96345 1731.000
23.98373 1914.000
24.00401 1910.000
24.02429 1894.000
24.04457 1951.000
24.06485 1892.000
24.08513 1921.000
24.10541 1954.000
24.12569 1899.000
24.14597 1969.000
24.16625 2029.000
24.18653 2085.000
24.20681 2152.000
24.22709 2072.000
24.24737 1984.000
24.26765 1812.000
24.28793 1587.000
24.30821 1375.000
24.32849 1307.000
24.34877 1295.000
24.36905 1279.000
24.38933 1313.000
24.40961 1393.000
24.42989 1448.000
24.45017 1594.000
24.47045 1484.000
24.49073 1467.000
24.51101 1337.000
24.53129 1176.000
24.55157 1124.000
24.57185 1123.000
24.59213 1036.000
24.61241 1013.000
24.63269 1192.000
24.65297 1299.000
24.67325 1423.000
24.69353 1499.000
24.71381 1743.000
24.73409 1868.000
24.75437 2003.000
24.77465 2051.000
24.79493 2097.000
24.81521 2010.000
24.83549 1893.000
24.85577 1827.000
24.87605 1762.000
24.89633 1564.000
24.91661 1496.000
24.93689 1341.000
24.95717 1232.000
24.97745 1151.000
24.99773 1098.000
25.01801 996.000
25.03829 982.000
25.05857 990.000
25.07885 985.000
25.09913 1051.000
25.11941 1084.000
25.13969 1166.000
25.15997 1341.000
25.18025 1405.000
25.20053 1580.000
25.22081 1802.000
25.24109 2096.000
25.26137 2417.000
25.28165 2698.000
25.30193 3340.000
25.32221 3530.000
25.34249 3884.000
25.36277 3916.000
25.38305 3872.000
25.40333 3697.000
25.42361 3349.000
25.44389 2934.000
25.46417 2605.000
25.48445 2432.000
25.50473 2084.000
25.52501 1825.000
25.54529 1583.000
25.56557 1433.000
25.58585 1217.000
25.60613 1115.000
25.62641 1089.000
25.64669 1077.000
25.66697 1068.000
25.68725 1130.000
25.70753 1168.000
25.72781 1346.000
25.74809 1433.000
25.76837 1699.000
25.78865 1714.000
25.80893 1818.000
25.82922 1836.000
25.84950 1922.000
25.86978 1843.000
25.89006 1719.000
25.91034 1542.000
25.93062 1435.000
25.95090 1334.000
25.97118 1385.000
25.99146 1492.000
26.01174 1514.000
26.03202 1673.000
26.05230 1794.000
26.07258 2049.000
26.09286 2308.000
26.11314 2405.000
26.13342 2502.000
26.15370 2562.000
26.17398 2541.000
26.19426 2209.000
26.21454 1989.000
26.23482 1838.000
26.25510 1718.000
26.27538 1743.000
26.29566 1793.000
26.31594 1805.000
26.33622 1823.000
26.35650 1840.000
26.37678 1787.000
26.39706 1797.000
26.41734 1739.000
26.43762 1722.000
26.45790 1717.000
26.47818 1702.000
26.49846 1728.000
26.51874 1771.000
26.53902 1730.000
26.55930 1532.000
26.57958 1539.000
26.59986 1266.000
26.62014 1113.000
26.64042 1034.000
26.66070 980.000
26.68098 943.000
26.70126 890.000
26.72154 895.000
26.74182 859.000
26.76210 874.000
26.78238 915.000
26.80266 894.000
26.82294 961.000
26.84322 1007.000
26.86350 1154.000
26.88378 1210.000
26.90406 1332.000
26.92434 1315.000
26.94462 1420.000
26.96490 1381.000
26.98518 1233.000
27.00546 1214.000
27.02574 1123.000
27.04602 977.000
27.06630 835.000
27.08658 734.000
27.10686 760.000
27.12714 726.000
27.14742 697.000
27.16770 709.000
27.18798 674.000
27.20826 726.000
27.22854 691.000
27.24882 772.000
27.26910 748.000
27.28938 811.000
27.30966 855.000
27.32994 841.000
27.35022 898.000
27.37050 907.000
27.39078 840.000
27.41106 874.000
27.43134 909.000
27.45162 826.000
27.47190 914.000
27.49218 1012.000
27.51246 954.000
27.53274 1029.000
27.55302 1014.000
27.57330 1025.000
27.59358 1017.000
27.61386 964.000
27.63414 906.000
27.65442 772.000
27.67470 715.000
27.69498 652.000
27.71526 660.000
27.73555 692.000
27.75583 668.000
27.77611 646.000
27.79639 591.000
27.81667 632.000
27.83695 610.000
27.85723 707.000
27.87751 622.000
27.89779 663.000
27.91807 648.000
27.93835 659.000
27.95863 750.000
27.97891 687.000
27.99919 727.000
28.01947 714.000
28.03975 740.000
28.06003 695.000
28.08031 642.000
28.10059 721.000
28.12087 645.000
28.14115 629.000
28.16143 643.000
28.18171 613.000
28.20199 644.000
28.22227 616.000
28.24255 625.000
28.26283 589.000
28.28311 706.000
28.30339 678.000
28.32367 707.000
28.34395 806.000
28.36423 825.000
28.38451 905.000
28.40479 1000.000
28.42507 1108.000
28.44535 1096.000
28.46563 1280.000
28.48591 1425.000
28.50619 1589.000
28.52647 1832.000
28.54675 2034.000
28.56703 2214.000
28.58731 2428.000
28.60759 2401.000
28.62787 2304.000
28.64815 2342.000
28.66843 2153.000
28.68871 1984.000
28.70899 1893.000
28.72927 1848.000
28.74955 1698.000
28.76983 1699.000
28.79011 1627.000
28.81039 1585.000
28.83067 1416.000
28.85095 1267.000
28.87123 1156.000
28.89151 960.000
28.91179 887.000
28.93207 794.000
28.95235 785.000
28.97263 716.000
28.99291 652.000
29.01319 646.000
29.03347 674.000
29.05375 673.000
29.07403 642.000
29.09431 664.000
29.11459 664.000
29.13487 735.000
29.15515 717.000
29.17543 717.000
29.19571 734.000
29.21599 811.000
29.23627 766.000
29.25655 737.000
29.27683 779.000
29.29711 708.000
29.31739 685.000
29.33767 694.000
29.35795 647.000
29.37823 619.000
29.39851 587.000
29.41879 636.000
29.43907 587.000
29.45935 605.000
29.47963 611.000
29.49991 628.000
29.52019 591.000
29.54047 622.000
29.56075 675.000
29.58103 736.000
29.60131 733.000
29.62159 838.000
29.64188 822.000
29.66216 932.000
29.68244 1017.000
29.70272 1076.000
29.72300 1241.000
29.74328 1346.000
29.76356 1456.000
29.78384 1678.000
29.80412 1733.000
29.82440 1785.000
29.84468 1795.000
29.86496 1836.000
29.88524 1844.000
29.90552 1714.000
29.92580 1539.000
29.94608 1491.000
29.96636 1482.000
29.98664 1442.000
30.00692 1502.000
30.02720 1448.000
30.04748 1522.000
30.06776 1626.000
30.08804 1625.000
30.10832 1621.000
30.12860 1504.000
30.14888 1475.000
30.16916 1456.000
30.18944 1427.000
30.20972 1380.000
30.23000 1267.000
30.25028 1291.000
30.27056 1177.000
30.29084 1083.000
30.31112 1146.000
30.33140 1086.000
30.35168 1038.000
30.37196 993.000
30.39224 961.000
30.41252 930.000
30.43280 864.000
30.45308 839.000
30.47336 801.000
30.49364 687.000
30.51392 719.000
30.53420 661.000
30.55448 640.000
30.57476 610.000
30.59504 599.000
30.61532 616.000
30.63560 579.000
30.65588 641.000
30.67616 654.000
30.69644 681.000
30.71672 678.000
30.73700 690.000
30.75728 688.000
30.77756 723.000
30.79784 783.000
30.81812 805.000
30.83840 760.000
30.85868 848.000
30.87896 770.000
30.89924 825.000
30.91952 803.000
30.93980 910.000
30.96008 1021.000
30.98036 882.000
31.00064 796.000
31.02092 783.000
31.04120 804.000
31.06148 767.000
31.08176 774.000
31.10204 744.000
31.12232 780.000
31.14260 748.000
31.16288 794.000
31.18316 827.000
31.20344 850.000
31.22372 873.000
31.24400 915.000
31.26428 1027.000
31.28456 990.000
31.30484 1060.000
31.32512 1094.000
31.34540 1149.000
31.36568 1206.000
31.38596 1158.000
31.40624 1238.000
31.42652 1169.000
31.44680 1156.000
31.46708 1139.000
31.48736 1101.000
31.50764 1168.000
31.52792 1203.000
31.54821 1308.000
31.56849 1402.000
31.58877 1465.000
31.60905 1613.000
31.62933 1646.000
31.64961 1799.000
31.66989 1790.000
31.69017 1846.000
31.71045 1833.000
31.73073 1754.000
31.75101 1580.000
31.77129 1441.000
31.79157 1379.000
31.81185 1241.000
31.83213 1217.000
31.85241 1069.000
31.87269 1068.000
31.89297 999.000
31.91325 1039.000
31.93353 1015.000
31.95381 988.000
31.97409 1078.000
31.99437 1059.000
32.01465 1087.000
32.03493 1177.000
32.05521 1217.000
32.07549 1212.000
32.09577 1174.000
32.11605 1156.000
32.13633 1156.000
32.15661 990.000
32.17689 927.000
32.19717 925.000
32.21745 797.000
32.23773 749.000
32.25801 686.000
32.27829 723.000
32.29857 792.000
32.31885 759.000
32.33913 764.000
32.35941 779.000
32.37969 834.000
32.39997 803.000
32.42025 843.000
32.44053 844.000
32.46081 752.000
32.48109 742.000
32.50137 768.000
32.52165 706.000
32.54193 632.000
32.56221 662.000
32.58249 654.000
32.60277 679.000
32.62305 644.000
32.64333 646.000
32.66361 669.000
32.68389 646.000
32.70417 646.000
32.72445 664.000
32.74473 688.000
32.76501 626.000
32.78529 604.000
32.80557 604.000
32.82585 625.000
32.84613 592.000
32.86641 571.000
32.88669 617.000
32.90697 600.000
32.92725 607.000
32.94753 639.000
32.96781 636.000
32.98809 633.000
33.00837 671.000
33.02865 688.000
33.04893 658.000
33.06921 739.000
33.08949 771.000
33.10977 854.000
33.13005 848.000
33.15033 913.000
33.17061 903.000
33.19089 890.000
33.21117 886.000
33.23145 847.000
33.25173 861.000
33.27201 839.000
33.29229 790.000
33.31257 683.000
33.33285 740.000
33.35313 661.000
33.37341 665.000
33.39369 654.000
33.41397 684.000
33.43425 673.000
33.45454 730.000
33.47482 755.000
33.49510 720.000
33.51538 798.000
33.53566 754.000
33.55594 782.000
33.57622 793.000
33.59650 855.000
33.61678 906.000
33.63706 916.000
33.65734 908.000
33.67762 933.000
33.69790 966.000
33.71818 963.000
33.73846 929.000
33.75874 853.000
33.77902 847.000
33.79930 745.000
33.81958 742.000
33.83986 705.000
33.86014 716.000
33.88042 629.000
33.90070 601.000
33.92098 623.000
33.94126 625.000
33.96154 620.000
33.98182 626.000
34.00210 589.000
34.02238 562.000
34.04266 584.000
34.06294 533.000
34.08322 578.000
34.10350 586.000
34.12378 608.000
34.14406 638.000
34.16434 613.000
34.18462 624.000
34.20490 654.000
34.22518 666.000
34.24546 614.000
34.26574 675.000
34.28602 571.000
34.30630 597.000
34.32658 578.000
34.34686 548.000
34.36714 535.000
34.38742 506.000
34.40770 550.000
34.42798 506.000
34.44826 533.000
34.46854 526.000
34.48882 477.000
34.50910 512.000
34.52938 567.000
34.54966 602.000
34.56994 535.000
34.59022 548.000
34.61050 600.000
34.63078 630.000
34.65106 612.000
34.67134 619.000
34.69162 677.000
34.71190 674.000
34.73218 670.000
34.75246 668.000
34.77274 670.000
34.79302 730.000
34.81330 759.000
34.83358 757.000
34.85386 751.000
34.87414 762.000
34.89442 771.000
34.91470 822.000
34.93498 895.000
34.95526 906.000
34.97554 943.000
34.99582 1001.000
35.01610 1090.000
35.03638 1116.000
35.05666 1193.000
35.07694 1194.000
35.09722 1155.000
35.11750 1065.000
35.13778 1066.000
35.15806 1058.000
35.17834 1017.000
35.19862 1011.000
35.21890 986.000
35.23918 920.000
35.25946 1005.000
35.27974 1015.000
35.30002 1004.000
35.32030 1019.000
35.34058 1034.000
35.36087 982.000
35.38115 960.000
35.40143 866.000
35.42171 845.000
35.44199 803.000
35.46227 753.000
35.48255 635.000
35.50283 594.000
35.52311 665.000
35.54339 633.000
35.56367 565.000
35.58395 614.000
35.60423 585.000
35.62451 587.000
35.64479 586.000
35.66507 604.000
35.68535 574.000
35.70563 610.000
35.72591 576.000
35.74619 595.000
35.76647 581.000
35.78675 543.000
35.80703 594.000
35.82731 543.000
35.84759 596.000
35.86787 621.000
35.88815 682.000
35.90843 653.000
35.92871 684.000
35.94899 627.000
35.96927 757.000
35.98955 784.000
36.00983 759.000
36.03011 775.000
36.05039 796.000
36.07067 848.000
36.09095 857.000
36.11123 922.000
36.13151 972.000
36.15179 1044.000
36.17207 1044.000
36.19235 1139.000
36.21263 1169.000
36.23291 1169.000
36.25319 1232.000
36.27347 1176.000
36.29375 1161.000
36.31403 1227.000
36.33431 1120.000
36.35459 1082.000
36.37487 1081.000
36.39515 955.000
36.41543 918.000
36.43571 873.000
36.45599 851.000
36.47627 842.000
36.49655 802.000
36.51683 742.000
36.53711 719.000
36.55739 717.000
36.57767 644.000
36.59795 609.000
36.61823 665.000
36.63851 655.000
36.65879 633.000
36.67907 649.000
36.69935 629.000
36.71963 682.000
36.73991 603.000
36.76019 662.000
36.78047 646.000
36.80075 625.000
36.82103 626.000
36.84131 639.000
36.86159 617.000
36.88187 604.000
36.90215 530.000
36.92243 563.000
36.94271 513.000
36.96299 581.000
36.98327 572.000
37.00355 589.000
37.02383 565.000
37.04411 576.000
37.06439 565.000
37.08467 573.000
37.10495 606.000
37.12523 629.000
37.14551 669.000
37.16579 644.000
37.18607 675.000
37.20635 745.000
37.22663 840.000
37.24691 806.000
37.26720 778.000
37.28748 784.000
37.30776 805.000
37.32804 849.000
37.34832 849.000
37.36860 760.000
37.38888 794.000
37.40916 719.000
37.42944 679.000
37.44972 701.000
37.47000 652.000
37.49028 650.000
37.51056 572.000
37.53084 605.000
37.55112 557.000
37.57140 573.000
37.59168 579.000
37.61196 542.000
37.63224 512.000
37.65252 537.000
37.67280 520.000
37.69308 528.000
37.71336 516.000
37.73364 546.000
37.75392 485.000
37.77420 531.000
37.79448 561.000
37.81476 588.000
37.83504 570.000
37.85532 615.000
37.87560 577.000
37.89588 638.000
37.91616 665.000
37.93644 711.000
37.95672 708.000
37.97700 757.000
37.99728 776.000
38.01756 764.000
38.03784 764.000
38.05812 725.000
38.07840 673.000
38.09868 691.000
38.11896 625.000
38.13924 674.000
38.15952 668.000
38.17980 675.000
38.20008 662.000
38.22036 667.000
38.24064 688.000
38.26092 740.000
38.28120 744.000
38.30148 767.000
38.32176 796.000
38.34204 862.000
38.36232 814.000
38.38260 831.000
38.40288 843.000
38.42316 813.000
38.44344 819.000
38.46372 854.000
38.48400 814.000
38.50428 775.000
38.52456 823.000
38.54484 800.000
38.56512 771.000
38.58540 710.000
38.60568 718.000
38.62596 709.000
38.64624 680.000
38.66652 677.000
38.68680 620.000
38.70708 618.000
38.72736 612.000
38.74764 614.000
38.76792 608.000
38.78820 605.000
38.80848 634.000
38.82876 664.000
38.84904 717.000
38.86932 665.000
38.88960 784.000
38.90988 786.000
38.93016 772.000
38.95044 769.000
38.97072 834.000
38.99100 872.000
39.01128 960.000
39.03156 964.000
39.05184 982.000
39.07212 971.000
39.09240 964.000
39.11268 930.000
39.13296 917.000
39.15324 892.000
39.17353 807.000
39.19381 753.000
39.21409 735.000
39.23437 666.000
39.25465 641.000
39.27493 650.000
39.29521 610.000
39.31549 628.000
39.33577 610.000
39.35605 597.000
39.37633 660.000
39.39661 641.000
39.41689 619.000
39.43717 639.000
39.45745 632.000
39.47773 611.000
39.49801 666.000
39.51829 685.000
39.53857 708.000
39.55885 743.000
39.57913 752.000
39.59941 735.000
39.61969 696.000
39.63997 726.000
39.66025 659.000
39.68053 733.000
39.70081 706.000
39.72109 663.000
39.74137 659.000
39.76165 646.000
39.78193 679.000
39.80221 644.000
39.82249 629.000
39.84277 596.000
39.86305 666.000
39.88333 671.000
39.90361 628.000
39.92389 690.000
39.94417 651.000
39.96445 663.000
39.98473 645.000
40.00501 654.000
40.02529 674.000
40.04557 667.000
40.06585 702.000
40.08613 690.000
40.10641 741.000
40.12669 676.000
40.14697 665.000
40.16725 676.000
40.18753 660.000
40.20781 719.000
40.22809 695.000
40.24837 674.000
40.26865 666.000
40.28893 691.000
40.30921 721.000
40.32949 717.000
40.34977 739.000
40.37005 796.000
40.39033 761.000
40.41061 840.000
40.43089 904.000
40.45117 969.000
40.47145 974.000
40.49173 1026.000
40.51201 1079.000
40.53229 1101.000
40.55257 1129.000
40.57285 1164.000
40.59313 1150.000
40.61341 1141.000
40.63369 1082.000
40.65397 1103.000
40.67425 1004.000
40.69453 939.000
40.71481 876.000
40.73509 880.000
40.75537 758.000
40.77565 708.000
40.79593 653.000
40.81621 669.000
40.83649 674.000
40.85677 641.000
40.87705 613.000
40.89733 622.000
40.91761 597.000
40.93789 602.000
40.95817 588.000
40.97845 570.000
40.99873 596.000
41.01901 643.000
41.03929 606.000
41.05957 618.000
41.07986 648.000
41.10014 609.000
41.12042 572.000
41.14070 606.000
41.16098 618.000
41.18126 601.000
41.20154 631.000
41.22182 650.000
41.24210 614.000
41.26238 609.000
41.28266 670.000
41.30294 658.000
41.32322 656.000
41.34350 628.000
41.36378 655.000
41.38406 640.000
41.40434 642.000
41.42462 595.000
41.44490 586.000
41.46518 547.000
41.48546 553.000
41.50574 505.000
41.52602 548.000
41.54630 500.000
41.56658 530.000
41.58686 502.000
41.60714 468.000
41.62742 496.000
41.64770 518.000
41.66798 530.000
41.68826 510.000
41.70854 533.000
41.72882 620.000
41.74910 564.000
41.76938 612.000
41.78966 573.000
41.80994 578.000
41.83022 604.000
41.85050 541.000
41.87078 545.000
41.89106 504.000
41.91134 585.000
41.93162 554.000
41.95190 539.000
41.97218 498.000
41.99246 537.000
42.01274 481.000
42.03302 458.000
42.05330 526.000
42.07358 478.000
42.09386 494.000
42.11414 491.000
42.13442 465.000
42.15470 502.000
42.17498 489.000
42.19526 468.000
42.21554 518.000
42.23582 498.000
42.25610 500.000
42.27638 464.000
42.29666 475.000
42.31694 535.000
42.33722 497.000
42.35750 489.000
42.37778 556.000
42.39806 527.000
42.41834 539.000
42.43862 569.000
42.45890 591.000
42.47918 553.000
42.49946 602.000
42.51974 655.000
42.54002 617.000
42.56030 624.000
42.58058 675.000
42.60086 660.000
42.62114 646.000
42.64142 692.000
42.66170 662.000
42.68198 671.000
42.70226 657.000
42.72254 645.000
42.74282 624.000
42.76310 625.000
42.78338 644.000
42.80366 579.000
42.82394 575.000
42.84422 573.000
42.86450 591.000
42.88478 565.000
42.90506 535.000
42.92534 561.000
42.94562 520.000
42.96590 563.000
42.98619 539.000
43.00647 548.000
43.02675 579.000
43.04703 619.000
43.06731 619.000
43.08759 577.000
43.10787 605.000
43.12815 619.000
43.14843 657.000
43.16871 703.000
43.18899 663.000
43.20927 677.000
43.22955 660.000
43.24983 660.000
43.27011 636.000
43.29039 739.000
43.31067 629.000
43.33095 662.000
43.35123 631.000
43.37151 642.000
43.39179 629.000
43.41207 646.000
43.43235 664.000
43.45263 626.000
43.47291 645.000
43.49319 657.000
43.51347 641.000
43.53375 618.000
43.55403 652.000
43.57431 614.000
43.59459 655.000
43.61487 676.000
43.63515 625.000
43.65543 727.000
43.67571 650.000
43.69599 664.000
43.71627 654.000
43.73655 722.000
43.75683 658.000
43.77711 706.000
43.79739 692.000
43.81767 662.000
43.83795 679.000
43.85823 673.000
43.87851 642.000
43.89879 661.000
43.91907 628.000
43.93935 613.000
43.95963 645.000
43.97991 671.000
44.00019 623.000
44.02047 601.000
44.04075 665.000
44.06103 606.000
44.08131 639.000
44.10159 596.000
44.12187 618.000
44.14215 585.000
44.16243 651.000
44.18271 604.000
44.20299 640.000
44.22327 654.000
44.24355 587.000
44.26383 680.000
44.28411 689.000
44.30439 714.000
44.32467 708.000
44.34495 755.000
44.36523 771.000
44.38551 754.000
44.40579 763.000
44.42607 812.000
44.44635 817.000
44.46663 815.000
44.48691 859.000
44.50719 903.000
44.52747 859.000
44.54775 840.000
44.56803 839.000
44.58831 894.000
44.60859 835.000
44.62887 832.000
44.64915 766.000
44.66943 751.000
44.68971 764.000
44.70999 730.000
44.73027 809.000
44.75055 772.000
44.77083 793.000
44.79111 752.000
44.81139 700.000
44.83167 715.000
44.85195 734.000
44.87223 734.000
44.89251 659.000
44.91280 702.000
44.93308 671.000
44.95336 666.000
44.97364 599.000
44.99392 632.000
45.01420 611.000
45.03448 614.000
45.05476 655.000
45.07504 643.000
45.09532 626.000
45.11560 641.000
45.13588 587.000
45.15616 647.000
45.17644 594.000
45.19672 638.000
45.21700 639.000
45.23728 624.000
45.25756 620.000
45.27784 632.000
45.29812 607.000
45.31840 608.000
45.33868 639.000
45.35896 635.000
45.37924 616.000
45.39952 666.000
45.41980 653.000
45.44008 660.000
45.46036 627.000
45.48064 669.000
45.50092 700.000
45.52120 682.000
45.54148 673.000
45.56176 612.000
45.58204 681.000
45.60232 693.000
45.62260 577.000
45.64288 656.000
45.66316 685.000
45.68344 635.000
45.70372 629.000
45.72400 613.000
45.74428 592.000
45.76456 599.000
45.78484 593.000
45.80512 611.000
45.82540 588.000
45.84568 560.000
45.86596 600.000
45.88624 568.000
45.90652 527.000
45.92680 556.000
45.94708 556.000
45.96736 557.000
45.98764 553.000
46.00792 565.000
46.02820 565.000
46.04848 584.000
46.06876 572.000
46.08904 609.000
46.10932 588.000
46.12960 627.000
46.14988 608.000
46.17016 588.000
46.19044 594.000
46.21072 663.000
46.23100 665.000
46.25128 661.000
46.27156 617.000
46.29184 658.000
46.31212 632.000
46.33240 662.000
46.35268 686.000
46.37296 668.000
46.39324 651.000
46.41352 642.000
46.43380 702.000
46.45408 679.000
46.47436 672.000
46.49464 738.000
46.51492 738.000
46.53520 730.000
46.55548 774.000
46.57576 778.000
46.59604 788.000
46.61632 788.000
46.63660 716.000
46.65688 738.000
46.67716 678.000
46.69744 664.000
46.71772 694.000
46.73800 669.000
46.75828 645.000
46.77856 626.000
46.79884 599.000
46.81913 560.000
46.83941 594.000
46.85969 597.000
46.87997 571.000
46.90025 568.000
46.92053 585.000
46.94081 556.000
46.96109 586.000
46.98137 544.000
47.00165 583.000
47.02193 546.000
47.04221 572.000
47.06249 597.000
47.08277 607.000
47.10305 613.000
47.12333 564.000
47.14361 602.000
47.16389 613.000
47.18417 557.000
47.20445 578.000
47.22473 563.000
47.24501 598.000
47.26529 607.000
47.28557 593.000
47.30585 560.000
47.32613 569.000
47.34641 604.000
47.36669 598.000
47.38697 569.000
47.40725 590.000
47.42753 626.000
47.44781 641.000
47.46809 574.000
47.48837 585.000
47.50865 643.000
47.52893 657.000
47.54921 607.000
47.56949 624.000
47.58977 565.000
47.61005 666.000
47.63033 604.000
47.65061 564.000
47.67089 585.000
47.69117 609.000
47.71145 575.000
47.73173 569.000
47.75201 584.000
47.77229 590.000
47.79257 555.000
47.81285 613.000
47.83313 597.000
47.85341 606.000
47.87369 600.000
47.89397 593.000
47.91425 614.000
47.93453 603.000
47.95481 600.000
47.97509 646.000
47.99537 582.000
48.01565 688.000
48.03593 644.000
48.05621 573.000
48.07649 652.000
48.09677 643.000
48.11705 604.000
48.13733 591.000
48.15761 582.000
48.17789 616.000
48.19817 585.000
48.21845 578.000
48.23873 562.000
48.25901 583.000
48.27929 575.000
48.29957 548.000
48.31985 586.000
48.34013 584.000
48.36041 533.000
48.38069 551.000
48.40097 620.000
48.42125 575.000
48.44153 590.000
48.46181 597.000
48.48209 524.000
48.50237 558.000
48.52265 538.000
48.54293 543.000
48.56321 571.000
48.58349 538.000
48.60377 522.000
48.62405 529.000
48.64433 534.000
48.66461 503.000
48.68489 513.000
48.70517 513.000
48.72546 512.000
48.74574 528.000
48.76602 543.000
48.78630 501.000
48.80658 581.000
48.82686 545.000
48.84714 531.000
48.86742 587.000
48.88770 610.000
48.90798 551.000
48.92826 546.000
48.94854 539.000
48.96882 533.000
48.98910 589.000
49.00938 578.000
49.02966 559.000
49.04994 586.000
49.07022 583.000
49.09050 585.000
49.11078 577.000
49.13106 594.000
49.15134 594.000
49.17162 563.000
49.19190 573.000
49.21218 590.000
49.23246 592.000
49.25274 556.000
49.27302 538.000
49.29330 553.000
49.31358 554.000
49.33386 555.000
49.35414 516.000
49.37442 581.000
49.39470 512.000
49.41498 528.000
49.43526 547.000
49.45554 500.000
49.47582 566.000
49.49610 499.000
49.51638 481.000
49.53666 547.000
49.55694 505.000
49.57722 485.000
49.59750 496.000
49.61778 460.000
49.63806 489.000
49.65834 477.000
49.67862 470.000
49.69890 513.000
49.71918 486.000
49.73946 516.000
49.75974 479.000
49.78002 495.000
49.80030 505.000
49.82058 528.000
49.84086 541.000
49.86114 532.000
49.88142 493.000
49.90170 552.000
49.92198 496.000
49.94226 488.000
49.96254 497.000
49.98282 536.000
50.00310 489.000
