5.00155 830.000
5.02183 740.000
5.04211 827.000
5.06239 758.000
5.08267 744.000
5.10295 774.000
5.12323 776.000
5.14351 688.000
5.16379 718.000
5.18407 741.000
5.20435 674.000
5.22463 679.000
5.24491 698.000
5.26519 655.000
5.28547 671.000
5.30575 641.000
5.32603 677.000
5.34631 591.000
5.36659 643.000
5.38687 611.000
5.40715 669.000
5.42743 599.000
5.44771 634.000
5.46799 660.000
5.48827 571.000
5.50855 636.000
5.52883 575.000
5.54911 601.000
5.56939 610.000
5.58967 563.000
5.60995 561.000
5.63023 601.000
5.65051 557.000
5.67079 515.000
5.69107 610.000
5.71135 554.000
5.73163 569.000
5.75191 556.000
5.77219 513.000
5.79247 546.000
5.81275 514.000
5.83303 533.000
5.85331 566.000
5.87359 537.000
5.89387 481.000
5.91415 456.000
5.93443 555.000
5.95471 459.000
5.97499 504.000
5.99527 499.000
6.01555 496.000
6.03583 483.000
6.05611 476.000
6.07639 476.000
6.09667 495.000
6.11695 497.000
6.13723 481.000
6.15751 521.000
6.17779 494.000
6.19807 452.000
6.21835 516.000
6.23863 527.000
6.25891 518.000
6.27919 542.000
6.29947 556.000
6.31975 579.000
6.34003 649.000
6.36031 680.000
6.38059 712.000
6.40087 802.000
6.42115 876.000
6.44143 880.000
6.46171 942.000
6.48199 910.000
6.50227 959.000
6.52255 908.000
6.54283 778.000
6.56311 708.000
6.58339 624.000
6.60367 548.000
6.62395 483.000
6.64423 476.000
6.66451 430.000
6.68479 429.000
6.70507 429.000
6.72536 435.000
6.74564 444.000
6.76592 421.000
6.78620 454.000
6.80648 401.000
6.82676 436.000
6.84704 423.000
6.86732 397.000
6.88760 431.000
6.90788 421.000
6.92816 420.000
6.94844 416.000
6.96872 408.000
6.98900 398.000
7.00928 364.000
7.02956 384.000
7.04984 377.000
7.07012 389.000
7.09040 403.000
7.11068 350.000
7.13096 412.000
7.15124 417.000
7.17152 353.000
7.19180 385.000
7.21208 345.000
7.23236 379.000
7.25264 358.000
7.27292 355.000
7.29320 394.000
7.31348 323.000
7.33376 378.000
7.35404 400.000
7.37432 378.000
7.39460 361.000
7.41488 373.000
7.43516 358.000
7.45544 360.000
7.47572 377.000
7.49600 376.000
7.51628 380.000
7.53656 379.000
7.55684 361.000
7.57712 344.000
7.59740 384.000
7.61768 378.000
7.63796 340.000
7.65824 385.000
7.67852 362.000
7.69880 353.000
7.71908 359.000
7.73936 336.000
7.75964 411.000
7.77992 409.000
7.80020 351.000
7.82048 380.000
7.84076 374.000
7.86104 414.000
7.88132 397.000
7.90160 374.000
7.92188 373.000
7.94216 393.000
7.96244 337.000
7.98272 370.000
8.00300 388.000
8.02328 398.000
8.04356 410.000
8.06384 409.000
8.08412 400.000
8.10440 367.000
8.12468 388.000
8.14496 424.000
8.16524 441.000
8.18552 448.000
8.20580 412.000
8.22608 412.000
8.24636 448.000
8.26664 436.000
8.28692 514.000
8.30720 469.000
8.32748 540.000
8.34776 523.000
8.36804 563.000
8.38832 618.000
8.40860 672.000
8.42888 734.000
8.44916 863.000
8.46944 944.000
8.48972 1123.000
8.51000 1310.000
8.53028 1556.000
8.55056 2080.000
8.57084 2468.000
8.59112 3193.000
8.61140 3997.000
8.63168 4700.000
8.65197 5410.000
8.67225 6039.000
8.69253 6286.000
8.71281 6169.000
8.73309 5772.000
8.75337 4852.000
8.77365 3894.000
8.79393 2782.000
8.81421 1922.000
8.83449 1430.000
8.85477 1082.000
8.87505 881.000
8.89533 722.000
8.91561 741.000
8.93589 710.000
8.95617 635.000
8.97645 628.000
8.99673 605.000
9.01701 554.000
9.03729 552.000
9.05757 518.000
9.07785 563.000
9.09813 547.000
9.11841 580.000
9.13869 504.000
9.15897 521.000
9.17925 557.000
9.19953 611.000
9.21981 542.000
9.24009 565.000
9.26037 623.000
9.28065 646.000
9.30093 671.000
9.32121 742.000
9.34149 798.000
9.36177 948.000
9.38205 1164.000
9.40233 1274.000
9.42261 1558.000
9.44289 2131.000
9.46317 2439.000
9.48345 2896.000
9.50373 3249.000
9.52401 3719.000
9.54429 3736.000
9.56457 3689.000
9.58485 3413.000
9.60513 2917.000
9.62541 2325.000
9.64569 1666.000
9.66597 1333.000
9.68625 1175.000
9.70653 1081.000
9.72681 1211.000
9.74709 1329.000
9.76737 1440.000
9.78765 1875.000
9.80793 2244.000
9.82821 2758.000
9.84849 3390.000
9.86877 3896.000
9.88905 4339.000
9.90933 4537.000
9.92961 4549.000
9.94989 4249.000
9.97017 3689.000
9.99045 2894.000
10.01073 2037.000
10.03101 1541.000
10.05129 1132.000
10.07157 917.000
10.09185 823.000
10.11213 714.000
10.13241 698.000
10.15269 666.000
10.17297 657.000
10.19325 642.000
10.21353 508.000
10.23381 521.000
10.25409 513.000
10.27437 515.000
10.29465 489.000
10.31493 504.000
10.33521 472.000
10.35549 532.000
10.37577 519.000
10.39605 589.000
10.41633 575.000
10.43661 562.000
10.45689 564.000
10.47717 528.000
10.49745 541.000
10.51773 569.000
10.53801 576.000
10.55830 511.000
10.57858 567.000
10.59886 483.000
10.61914 456.000
10.63942 452.000
10.65970 453.000
10.67998 433.000
10.70026 491.000
10.72054 539.000
10.74082 486.000
10.76110 518.000
10.78138 539.000
10.80166 648.000
10.82194 722.000
10.84222 811.000
10.86250 1046.000
10.88278 1213.000
10.90306 1465.000
10.92334 1905.000
10.94362 2330.000
10.96390 2546.000
10.98418 2663.000
11.00446 2902.000
11.02474 2660.000
11.04502 2473.000
11.06530 2044.000
11.08558 1631.000
11.10586 1097.000
11.12614 812.000
11.14642 655.000
11.16670 559.000
11.18698 498.000
11.20726 441.000
11.22754 474.000
11.24782 500.000
11.26810 479.000
11.28838 433.000
11.30866 459.000
11.32894 425.000
11.34922 430.000
11.36950 447.000
11.38978 445.000
11.41006 444.000
11.43034 412.000
11.45062 416.000
11.47090 389.000
11.49118 429.000
11.51146 386.000
11.53174 422.000
11.55202 416.000
11.57230 375.000
11.59258 404.000
11.61286 391.000
11.63314 435.000
11.65342 374.000
11.67370 419.000
11.69398 414.000
11.71426 430.000
11.73454 401.000
11.75482 406.000
11.77510 391.000
11.79538 398.000
11.81566 371.000
11.83594 363.000
11.85622 441.000
11.87650 383.000
11.89678 366.000
11.91706 389.000
11.93734 343.000
11.95762 393.000
11.97790 392.000
11.99818 387.000
12.01846 406.000
12.03874 384.000
12.05902 419.000
12.07930 387.000
12.09958 387.000
12.11986 375.000
12.14014 410.000
12.16042 387.000
12.18070 404.000
12.20098 359.000
12.22126 403.000
12.24154 340.000
12.26182 350.000
12.28210 395.000
12.30238 404.000
12.32266 415.000
12.34294 451.000
12.36322 466.000
12.38350 470.000
12.40378 455.000
12.42406 477.000
12.44434 405.000
12.46463 487.000
12.48491 440.000
12.50519 498.000
12.52547 427.000
12.54575 396.000
12.56603 399.000
12.58631 385.000
12.60659 436.000
12.62687 352.000
12.64715 364.000
12.66743 388.000
12.68771 389.000
12.70799 375.000
12.72827 386.000
12.74855 415.000
12.76883 420.000
12.78911 405.000
12.80939 391.000
12.82967 407.000
12.84995 458.000
12.87023 429.000
12.89051 433.000
12.91079 452.000
12.93107 439.000
12.95135 465.000
12.97163 565.000
12.99191 567.000
13.01219 643.000
13.03247 559.000
13.05275 652.000
13.07303 643.000
13.09331 648.000
13.11359 607.000
13.13387 635.000
13.15415 578.000
13.17443 566.000
13.19471 634.000
13.21499 683.000
13.23527 837.000
13.25555 920.000
13.27583 1002.000
13.29611 1017.000
13.31639 1080.000
13.33667 1097.000
13.35695 1046.000
13.37723 897.000
13.39751 881.000
13.41779 701.000
13.43807 642.000
13.45835 617.000
13.47863 597.000
13.49891 596.000
13.51919 587.000
13.53947 695.000
13.55975 696.000
13.58003 819.000
13.60031 958.000
13.62059 1098.000
13.64087 1377.000
13.66115 1766.000
13.68143 2172.000
13.70171 2434.000
13.72199 2808.000
13.74227 3173.000
13.76255 3460.000
13.78283 3618.000
13.80311 3588.000
13.82339 3409.000
13.84367 3140.000
13.86395 3052.000
13.88423 2736.000
13.90451 2459.000
13.92479 1995.000
13.94507 1634.000
13.96535 1200.000
13.98563 1018.000
14.00591 796.000
14.02619 685.000
14.04647 627.000
14.06675 566.000
14.08703 584.000
14.10731 510.000
14.12759 527.000
14.14787 495.000
14.16815 473.000
14.18843 466.000
14.20871 469.000
14.22899 388.000
14.24927 407.000
14.26955 443.000
14.28983 423.000
14.31011 443.000
14.33039 465.000
14.35067 410.000
14.37096 466.000
14.39124 432.000
14.41152 461.000
14.43180 480.000
14.45208 409.000
14.47236 441.000
14.49264 478.000
14.51292 434.000
14.53320 403.000
14.55348 453.000
14.57376 449.000
14.59404 458.000
14.61432 463.000
14.63460 441.000
14.65488 509.000
14.67516 409.000
14.69544 481.000
14.71572 485.000
14.73600 517.000
14.75628 509.000
14.77656 498.000
14.79684 598.000
14.81712 634.000
14.83740 589.000
14.85768 796.000
14.87796 871.000
14.89824 961.000
14.91852 1008.000
14.93880 999.000
14.95908 1015.000
14.97936 989.000
14.99964 886.000
15.01992 774.000
15.04020 659.000
15.06048 546.000
15.08076 541.000
15.10104 484.000
15.12132 504.000
15.14160 489.000
15.16188 457.000
15.18216 460.000
15.20244 456.000
15.22272 483.000
15.24300 479.000
15.26328 487.000
15.28356 498.000
15.30384 478.000
15.32412 471.000
15.34440 495.000
15.36468 446.000
15.38496 461.000
15.40524 538.000
15.42552 497.000
15.44580 487.000
15.46608 527.000
15.48636 569.000
15.50664 576.000
15.52692 601.000
15.54720 721.000
15.56748 778.000
15.58776 869.000
15.60804 1036.000
15.62832 1112.000
15.64860 1133.000
15.66888 1278.000
15.68916 1320.000
15.70944 1324.000
15.72972 1202.000
15.75000 1126.000
15.77028 1079.000
15.79056 1021.000
15.81084 975.000
15.83112 900.000
15.85140 817.000
15.87168 911.000
15.89196 852.000
15.91224 965.000
15.93252 1000.000
15.95280 1221.000
15.97308 1478.000
15.99336 1702.000
16.01364 2115.000
16.03392 2829.000
16.05420 3307.000
16.07448 3956.000
16.09476 4536.000
16.11504 5062.000
16.13532 5159.000
16.15560 4980.000
16.17588 4682.000
16.19616 3961.000
16.21644 3034.000
16.23672 2292.000
16.25700 1822.000
16.27729 1385.000
16.29757 1223.000
16.31785 1128.000
16.33813 1164.000
16.35841 1160.000
16.37869 1304.000
16.39897 1427.000
16.41925 1557.000
16.43953 1672.000
16.45981 1822.000
16.48009 1848.000
16.50037 1863.000
16.52065 1813.000
16.54093 1814.000
16.56121 1747.000
16.58149 1859.000
16.60177 2084.000
16.62205 2449.000
16.64233 2803.000
16.66261 3416.000
16.68289 3754.000
16.70317 4219.000
16.72345 4242.000
16.74373 4313.000
16.76401 3977.000
16.78429 3457.000
16.80457 2893.000
16.82485 2126.000
16.84513 1628.000
16.86541 1371.000
16.88569 1128.000
16.90597 1066.000
16.92625 929.000
16.94653 971.000
16.96681 855.000
16.98709 853.000
17.00737 812.000
17.02765 839.000
17.04793 809.000
17.06821 919.000
17.08849 881.000
17.10877 911.000
17.12905 925.000
17.14933 1042.000
17.16961 1191.000
17.18989 1227.000
17.21017 1420.000
17.23045 1683.000
17.25073 2035.000
17.27101 2502.000
17.29129 3024.000
17.31157 3830.000
17.33185 4633.000
17.35213 5296.000
17.37241 5902.000
17.39269 6227.000
17.41297 6167.000
17.43325 5794.000
17.45353 5032.000
17.47381 4045.000
17.49409 3128.000
17.51437 2235.000
17.53465 1820.000
17.55493 1616.000
17.57521 1481.000
17.59549 1491.000
17.61577 1606.000
17.63605 1751.000
17.65633 2128.000
17.67661 2646.000
17.69689 3270.000
17.71717 4269.000
17.73745 5654.000
17.75773 6949.000
17.77801 8121.000
17.79829 8937.000
17.81857 9105.000
17.83885 9374.000
17.85913 8488.000
17.87941 7140.000
17.89969 5668.000
17.91997 4152.000
17.94025 3134.000
17.96053 2451.000
17.98081 2094.000
18.00109 1957.000
18.02137 1821.000
18.04165 1697.000
18.06193 1623.000
18.08221 1569.000
18.10249 1462.000
18.12277 1525.000
18.14305 1519.000
18.16333 1581.000
18.18362 1723.000
18.20390 1965.000
18.22418 2218.000
18.24446 2564.000
18.26474 3157.000
18.28502 3963.000
18.30530 4848.000
18.32558 5729.000
18.34586 6855.000
18.36614 7896.000
18.38642 8815.000
18.40670 9592.000
18.42698 9842.000
18.44726 9483.000
18.46754 9040.000
18.48782 7898.000
18.50810 6474.000
18.52838 5010.000
18.54866 3752.000
18.56894 2765.000
18.58922 2074.000
18.60950 1604.000
18.62978 1391.000
18.65006 1354.000
18.67034 1306.000
18.69062 1326.000
18.71090 1279.000
18.73118 1292.000
18.75146 1356.000
18.77174 1415.000
18.79202 1615.000
18.81230 1804.000
18.83258 2107.000
18.85286 2488.000
18.87314 2985.000
18.89342 3399.000
18.91370 3914.000
18.93398 4397.000
18.95426 4653.000
18.97454 4787.000
18.99482 4577.000
19.01510 4233.000
19.03538 3759.000
19.05566 3236.000
19.07594 2828.000
19.09622 2456.000
19.11650 2161.000
19.13678 1954.000
19.15706 1694.000
19.17734 1467.000
19.19762 1415.000
19.21790 1235.000
19.23818 1293.000
19.25846 1370.000
19.27874 1376.000
19.29902 1527.000
19.31930 1553.000
19.33958 1699.000
19.35986 1760.000
19.38014 1898.000
19.40042 2024.000
19.42070 2247.000
19.44098 2493.000
19.46126 2676.000
19.48154 3138.000
19.50182 3507.000
19.52210 3768.000
19.54238 4031.000
19.56266 4181.000
19.58294 4014.000
19.60322 3715.000
19.62350 3266.000
19.64378 2897.000
19.66406 2629.000
19.68434 2396.000
19.70462 2542.000
19.72490 2668.000
19.74518 3034.000
19.76546 3381.000
19.78574 3681.000
19.80602 4100.000
19.82630 4236.000
19.84658 4246.000
19.86686 4191.000
19.88714 3924.000
19.90742 3495.000
19.92770 3302.000
19.94798 3264.000
19.96826 3512.000
19.98854 3986.000
20.00882 4563.000
20.02910 5241.000
20.04938 5950.000
20.06966 6727.000
20.08995 7069.000
20.11023 6956.000
20.13051 6643.000
20.15079 5927.000
20.17107 5112.000
20.19135 4269.000
20.21163 3329.000
20.23191 2788.000
20.25219 2471.000
20.27247 2146.000
20.29275 2303.000
20.31303 2355.000
20.33331 2370.000
20.35359 2542.000
20.37387 2626.000
20.39415 2694.000
20.41443 2652.000
20.43471 2481.000
20.45499 2395.000
20.47527 2281.000
20.49555 2270.000
20.51583 2250.000
20.53611 2255.000
20.55639 2693.000
20.57667 3156.000
20.59695 3730.000
20.61723 4471.000
20.63751 4969.000
20.65779 5532.000
20.67807 5727.000
20.69835 5847.000
20.71863 5272.000
20.73891 4714.000
20.75919 3903.000
20.77947 3084.000
20.79975 2488.000
20.82003 1934.000
20.84031 1724.000
20.86059 1559.000
20.88087 1492.000
20.90115 1567.000
20.92143 1558.000
20.94171 1606.000
20.96199 1619.000
20.98227 1654.000
21.00255 1679.000
21.02283 1595.000
21.04311 1521.000
21.06339 1347.000
21.08367 1294.000
21.10395 1242.000
21.12423 1218.000
21.14451 1191.000
21.16479 1191.000
21.18507 1268.000
21.20535 1325.000
21.22563 1364.000
21.24591 1524.000
21.26619 1678.000
21.28647 1634.000
21.30675 1803.000
21.32703 1976.000
21.34731 2018.000
21.36759 2189.000
21.38787 2443.000
21.40815 2667.000
21.42843 2951.000
21.44871 3296.000
21.46899 3711.000
21.48927 4006.000
21.50955 4280.000
21.52983 4445.000
21.55011 4444.000
21.57039 4455.000
21.59067 4475.000
21.61095 4747.000
21.63123 5135.000
21.65151 5744.000
21.67179 6594.000
21.69207 7301.000
21.71235 7887.000
21.73263 8269.000
21.75291 8223.000
21.77319 7770.000
21.79347 6821.000
21.81375 5676.000
21.83403 4549.000
21.85431 3557.000
21.87459 2702.000
21.89487 2148.000
21.91515 1934.000
21.93543 1705.000
21.95571 1605.000
21.97599 1686.000
21.99628 1654.000
22.01656 1678.000
22.03684 1689.000
22.05712 1763.000
22.07740 1948.000
22.09768 2040.000
22.11796 2258.000
22.13824 2514.000
22.15852 2834.000
22.17880 3056.000
22.19908 3529.000
22.21936 3775.000
22.23964 3836.000
22.25992 3828.000
22.28020 3576.000
22.30048 3193.000
22.32076 2693.000
22.34104 2296.000
22.36132 1745.000
22.38160 1625.000
22.40188 1336.000
22.42216 1182.000
22.44244 1118.000
22.46272 1133.000
22.48300 1124.000
22.50328 1204.000
22.52356 1218.000
22.54384 1243.000
22.56412 1335.000
22.58440 1407.000
22.60468 1433.000
22.62496 1503.000
22.64524 1619.000
22.66552 1615.000
22.68580 1662.000
22.70608 1806.000
22.72636 1995.000
22.74664 2054.000
22.76692 2254.000
22.78720 2242.000
22.80748 2469.000
22.82776 2386.000
22.84804 2144.000
22.86832 1931.000
22.88860 1721.000
22.90888 1491.000
22.92916 1477.000
22.94944 1254.000
22.96972 1167.000
22.99000 1077.000
23.01028 1068.000
23.03056 1060.000
23.05084 1210.000
23.07112 1086.000
23.09140 1296.000
23.11168 1296.000
23.13196 1240.000
23.15224 1249.000
23.17252 1244.000
23.19280 1205.000
23.21308 1120.000
23.23336 1010.000
23.25364 971.000
23.27392 1010.000
23.29420 1037.000
23.31448 1118.000
23.33476 1167.000
23.35504 1285.000
23.37532 1404.000
23.39560 1565.000
23.41588 1734.000
23.43616 1892.000
23.45644 2110.000
23.47672 2241.000
23.49700 2229.000
23.51728 2275.000
23.53756 2182.000
23.55784 2034.000
23.57812 1793.000
23.59840 1675.000
23.61868 1520.000
23.63896 1413.000
23.65924 1378.000
23.67952 1409.000
23.69980 1494.000
23.72008 1493.000
23.74036 1532.000
23.76064 1522.000
23.78092 1444.000
23.80120 1444.000
23.82148 1327.000
23.84176 1360.000
23.86204 1335.000
23.88232 1328.000
23.90261 1407.000
23.92289 1467.000
23.94317 1539.000
23.96345 1690.000
23.98373 1792.000
24.00401 1875.000
24.02429 1996.000
24.04457 1953.000
24.06485 2040.000
24.08513 1941.000
24.10541 2068.000
24.12569 2073.000
24.14597 2132.000
24.16625 2033.000
24.18653 2121.000
24.20681 2154.000
24.22709 2135.000
24.24737 2128.000
24.26765 2031.000
24.28793 1992.000
24.30821 1783.000
24.32849 1676.000
24.34877 1451.000
24.36905 1333.000
24.38933 1264.000
24.40961 1313.000
24.42989 1267.000
24.45017 1361.000
24.47045 1397.000
24.49073 1354.000
24.51101 1467.000
24.53129 1344.000
24.55157 1298.000
24.57185 1199.000
24.59213 1160.000
24.61241 1129.000
24.63269 1112.000
24.65297 1145.000
24.67325 1262.000
24.69353 1282.000
24.71381 1535.000
24.73409 1640.000
24.75437 1837.000
24.77465 1840.000
24.79493 2073.000
24.81521 2081.000
24.83549 2085.000
24.85577 1962.000
24.87605 1931.000
24.89633 1750.000
24.91661 1766.000
24.93689 1531.000
24.95717 1455.000
24.97745 1400.000
24.99773 1290.000
25.01801 1091.000
25.03829 987.000
25.05857 1026.000
25.07885 989.000
25.09913 975.000
25.11941 991.000
25.13969 985.000
25.15997 1110.000
25.18025 1206.000
25.20053 1311.000
25.22081 1485.000
25.24109 1631.000
25.26137 2002.000
25.28165 2320.000
25.30193 2718.000
25.32221 2969.000
25.34249 3491.000
25.36277 3787.000
25.38305 3798.000
25.40333 4031.000
25.42361 4060.000
25.44389 3651.000
25.46417 3465.000
25.48445 3079.000
25.50473 2664.000
25.52501 2485.000
25.54529 2154.000
25.56557 1814.000
25.58585 1665.000
25.60613 1528.000
25.62641 1290.000
25.64669 1239.000
25.66697 1161.000
25.68725 1108.000
25.70753 1175.000
25.72781 1221.000
25.74809 1296.000
25.76837 1489.000
25.78865 1584.000
25.80893 1639.000
25.82922 1856.000
25.84950 1961.000
25.86978 1895.000
25.89006 1905.000
25.91034 1997.000
25.93062 1627.000
25.95090 1585.000
25.97118 1496.000
25.99146 1416.000
26.01174 1442.000
26.03202 1472.000
26.05230 1543.000
26.07258 1707.000
26.09286 1925.000
26.11314 1993.000
26.13342 2321.000
26.15370 2547.000
26.17398 2430.000
26.19426 2500.000
26.21454 2439.000
26.23482 2251.000
26.25510 2143.000
26.27538 2012.000
26.29566 1855.000
26.31594 1864.000
26.33622 1944.000
26.35650 1792.000
26.37678 1884.000
26.39706 1897.000
26.41734 1839.000
26.43762 1948.000
26.45790 1791.000
26.47818 1838.000
26.49846 1794.000
26.51874 1886.000
26.53902 1859.000
26.55930 1767.000
26.57958 1701.000
26.59986 1527.000
26.62014 1487.000
26.64042 1260.000
26.66070 1176.000
26.68098 1074.000
26.70126 961.000
26.72154 814.000
26.74182 855.000
26.76210 853.000
26.78238 894.000
26.80266 870.000
26.82294 862.000
26.84322 947.000
26.86350 1034.000
26.88378 1122.000
26.90406 1124.000
26.92434 1266.000
26.94462 1302.000
26.96490 1398.000
26.98518 1390.000
27.00546 1386.000
27.02574 1291.000
27.04602 1220.000
27.06630 1118.000
27.08658 919.000
27.10686 884.000
27.12714 759.000
27.14742 666.000
27.16770 694.000
27.18798 732.000
27.20826 669.000
27.22854 786.000
27.24882 750.000
27.26910 749.000
27.28938 766.000
27.30966 813.000
27.32994 815.000
27.35022 831.000
27.37050 845.000
27.39078 926.000
27.41106 924.000
27.43134 831.000
27.45162 929.000
27.47190 907.000
27.49218 852.000
27.51246 901.000
27.53274 952.000
27.55302 1019.000
27.57330 991.000
27.59358 1054.000
27.61386 1047.000
27.63414 1051.000
27.65442 955.000
27.67470 901.000
27.69498 776.000
27.71526 740.000
27.73555 715.000
27.75583 682.000
27.77611 717.000
27.79639 649.000
27.81667 606.000
27.83695 667.000
27.85723 623.000
27.87751 667.000
27.89779 661.000
27.91807 680.000
27.93835 704.000
27.95863 696.000
27.97891 668.000
27.99919 698.000
28.01947 720.000
28.03975 751.000
28.06003 681.000
28.08031 736.000
28.10059 700.000
28.12087 692.000
28.14115 683.000
28.16143 704.000
28.18171 671.000
28.20199 651.000
28.22227 660.000
28.24255 639.000
28.26283 658.000
28.28311 643.000
28.30339 657.000
28.32367 695.000
28.34395 662.000
28.36423 735.000
28.38451 754.000
28.40479 827.000
28.42507 840.000
28.44535 930.000
28.46563 1084.000
28.48591 1188.000
28.50619 1285.000
28.52647 1542.000
28.54675 1768.000
28.56703 1880.000
28.58731 2144.000
28.60759 2226.000
28.62787 2416.000
28.64815 2493.000
28.66843 2465.000
28.68871 2429.000
28.70899 2148.000
28.72927 2117.000
28.74955 1960.000
28.76983 1971.000
28.79011 1825.000
28.81039 1732.000
28.83067 1648.000
28.85095 1586.000
28.87123 1412.000
28.89151 1275.000
28.91179 1124.000
28.93207 1028.000
28.95235 893.000
28.97263 889.000
28.99291 755.000
29.01319 798.000
29.03347 698.000
29.05375 618.000
29.07403 641.000
29.09431 665.000
29.11459 661.000
29.13487 667.000
29.15515 648.000
29.17543 709.000
29.19571 762.000
29.21599 776.000
29.23627 801.000
29.25655 819.000
29.27683 808.000
29.29711 786.000
29.31739 790.000
29.33767 738.000
29.35795 750.000
29.37823 729.000
29.39851 733.000
29.41879 628.000
29.43907 641.000
29.45935 588.000
29.47963 622.000
29.49991 600.000
29.52019 659.000
29.54047 600.000
29.56075 662.000
29.58103 685.000
29.60131 711.000
29.62159 761.000
29.64188 819.000
29.66216 795.000
29.68244 921.000
29.70272 949.000
29.72300 1052.000
29.74328 1116.000
29.76356 1269.000
29.78384 1439.000
29.80412 1552.000
29.82440 1801.000
29.84468 1875.000
29.86496 1933.000
29.88524 1997.000
29.90552 1819.000
29.92580 1783.000
29.94608 1642.000
29.96636 1615.000
29.98664 1600.000
30.00692 1526.000
30.02720 1509.000
30.04748 1544.000
30.06776 1532.000
30.08804 1585.000
30.10832 1727.000
30.12860 1647.000
30.14888 1648.000
30.16916 1615.000
30.18944 1567.000
30.20972 1565.000
30.23000 1456.000
30.25028 1363.000
30.27056 1236.000
30.29084 1278.000
30.31112 1227.000
30.33140 1215.000
30.35168 1158.000
30.37196 1144.000
30.39224 1149.000
30.41252 1077.000
30.43280 1032.000
30.45308 999.000
30.47336 874.000
30.49364 866.000
30.51392 812.000
30.53420 774.000
30.55448 629.000
30.57476 666.000
30.59504 642.000
30.61532 631.000
30.63560 599.000
30.65588 599.000
30.67616 653.000
30.69644 608.000
30.71672 660.000
30.73700 626.000
30.75728 660.000
30.77756 683.000
30.79784 763.000
30.81812 818.000
30.83840 740.000
30.85868 817.000
30.87896 772.000
30.89924 853.000
30.91952 831.000
30.93980 899.000
30.96008 925.000
30.98036 920.000
31.00064 923.000
31.02092 907.000
31.04120 884.000
31.06148 824.000
31.08176 809.000
31.10204 773.000
31.12232 741.000
31.14260 783.000
31.16288 759.000
31.18316 812.000
31.20344 819.000
31.22372 890.000
31.24400 894.000
31.26428 917.000
31.28456 922.000
31.30484 1032.000
31.32512 1043.000
31.34540 1146.000
31.36568 1203.000
31.38596 1214.000
31.40624 1234.000
31.42652 1258.000
31.44680 1319.000
31.46708 1198.000
31.48736 1128.000
31.50764 1160.000
31.52792 1181.000
31.54821 1266.000
31.56849 1274.000
31.58877 1405.000
31.60905 1524.000
31.62933 1532.000
31.64961 1675.000
31.66989 1805.000
31.69017 1848.000
31.71045 1928.000
31.73073 1996.000
31.75101 1898.000
31.77129 1889.000
31.79157 1760.000
31.81185 1567.000
31.83213 1455.000
31.85241 1381.000
31.87269 1285.000
31.89297 1272.000
31.91325 1093.000
31.93353 1131.000
31.95381 1088.000
31.97409 1068.000
31.99437 1075.000
32.01465 1106.000
32.03493 1171.000
32.05521 1219.000
32.07549 1206.000
32.09577 1318.000
32.11605 1283.000
32.13633 1220.000
32.15661 1146.000
32.17689 1197.000
32.19717 1114.000
32.21745 1019.000
32.23773 938.000
32.25801 832.000
32.27829 793.000
32.29857 754.000
32.31885 737.000
32.33913 814.000
32.35941 807.000
32.37969 791.000
32.39997 790.000
32.42025 825.000
32.44053 836.000
32.46081 895.000
32.48109 776.000
32.50137 800.000
32.52165 757.000
32.54193 759.000
32.56221 687.000
32.58249 720.000
32.60277 664.000
32.62305 707.000
32.64333 647.000
32.66361 663.000
32.68389 673.000
32.70417 672.000
32.72445 658.000
32.74473 675.000
32.76501 667.000
32.78529 665.000
32.80557 630.000
32.82585 655.000
32.84613 634.000
32.86641 622.000
32.88669 639.000
32.90697 546.000
32.92725 665.000
32.94753 648.000
32.96781 575.000
32.98809 614.000
33.00837 631.000
33.02865 610.000
33.04893 625.000
33.06921 739.000
33.08949 749.000
33.10977 816.000
33.13005 827.000
33.15033 960.000
33.17061 965.000
33.19089 1037.000
33.21117 1006.000
33.23145 1030.000
33.25173 964.000
33.27201 894.000
33.29229 843.000
33.31257 833.000
33.33285 774.000
33.35313 771.000
33.37341 707.000
33.39369 673.000
33.41397 668.000
33.43425 649.000
33.45454 673.000
33.47482 721.000
33.49510 730.000
33.51538 716.000
33.53566 763.000
33.55594 794.000
33.57622 776.000
33.59650 785.000
33.61678 828.000
33.63706 888.000
33.65734 862.000
33.67762 995.000
33.69790 977.000
33.71818 1011.000
33.73846 985.000
33.75874 1047.000
33.77902 972.000
33.79930 938.000
33.81958 873.000
33.83986 822.000
33.86014 800.000
33.88042 705.000
33.90070 702.000
33.92098 679.000
33.94126 671.000
33.96154 666.000
33.98182 607.000
34.00210 662.000
34.02238 602.000
34.04266 624.000
34.06294 609.000
34.08322 588.000
34.10350 595.000
34.12378 576.000
34.14406 625.000
34.16434 600.000
34.18462 580.000
34.20490 607.000
34.22518 629.000
34.24546 658.000
34.26574 653.000
34.28602 624.000
34.30630 576.000
34.32658 587.000
34.34686 571.000
34.36714 619.000
34.38742 573.000
34.40770 490.000
34.42798 509.000
34.44826 461.000
34.46854 543.000
34.48882 553.000
34.50910 503.000
34.52938 509.000
34.54966 564.000
34.56994 512.000
34.59022 540.000
34.61050 540.000
34.63078 603.000
34.65106 570.000
34.67134 594.000
34.69162 616.000
34.71190 616.000
34.73218 675.000
34.75246 702.000
34.77274 707.000
34.79302 651.000
34.81330 732.000
34.83358 712.000
34.85386 696.000
34.87414 790.000
34.89442 722.000
34.91470 845.000
34.93498 831.000
34.95526 887.000
34.97554 918.000
34.99582 966.000
35.01610 1013.000
35.03638 1033.000
35.05666 1109.000
35.07694 1119.000
35.09722 1175.000
35.11750 1190.000
35.13778 1158.000
35.15806 1157.000
35.17834 1137.000
35.19862 1110.000
35.21890 1031.000
35.23918 1064.000
35.25946 1067.000
35.27974 1019.000
35.30002 1044.000
35.32030 1109.000
35.34058 1130.000
35.36087 1144.000
35.38115 1093.000
35.40143 1055.000
35.42171 947.000
35.44199 968.000
35.46227 913.000
35.48255 805.000
35.50283 755.000
35.52311 694.000
35.54339 682.000
35.56367 620.000
35.58395 586.000
35.60423 585.000
35.62451 655.000
35.64479 644.000
35.66507 639.000
35.68535 620.000
35.70563 593.000
35.72591 581.000
35.74619 581.000
35.76647 578.000
35.78675 608.000
35.80703 574.000
35.82731 554.000
35.84759 570.000
35.86787 594.000
35.88815 623.000
35.90843 643.000
35.92871 672.000
35.94899 711.000
35.96927 749.000
35.98955 741.000
36.00983 764.000
36.03011 811.000
36.05039 746.000
36.07067 810.000
36.09095 871.000
36.11123 867.000
36.13151 877.000
36.15179 991.000
36.17207 1053.000
36.19235 1114.000
36.21263 1215.000
36.23291 1221.000
36.25319 1226.000
36.27347 1278.000
36.29375 1293.000
36.31403 1225.000
36.33431 1269.000
36.35459 1242.000
36.37487 1229.000
36.39515 1164.000
36.41543 1085.000
36.43571 1002.000
36.45599 1046.000
36.47627 997.000
36.49655 871.000
36.51683 892.000
36.53711 786.000
36.55739 758.000
36.57767 773.000
36.59795 746.000
36.61823 684.000
36.63851 666.000
36.65879 656.000
36.67907 690.000
36.69935 707.000
36.71963 633.000
36.73991 715.000
36.76019 659.000
36.78047 682.000
36.80075 657.000
36.82103 692.000
36.84131 744.000
36.86159 654.000
36.88187 655.000
36.90215 636.000
36.92243 593.000
36.94271 579.000
36.96299 563.000
36.98327 547.000
37.00355 540.000
37.02383 553.000
37.04411 542.000
37.06439 573.000
37.08467 528.000
37.10495 517.000
37.12523 634.000
37.14551 647.000
37.16579 652.000
37.18607 708.000
37.20635 737.000
37.22663 731.000
37.24691 742.000
37.26720 830.000
37.28748 860.000
37.30776 856.000
37.32804 849.000
37.34832 876.000
37.36860 886.000
37.38888 814.000
37.40916 832.000
37.42944 805.000
37.44972 776.000
37.47000 752.000
37.49028 698.000
37.51056 687.000
37.53084 684.000
37.55112 613.000
37.57140 645.000
37.59168 587.000
37.61196 587.000
37.63224 565.000
37.65252 567.000
37.67280 580.000
37.69308 549.000
37.71336 548.000
37.73364 571.000
37.75392 554.000
37.77420 520.000
37.79448 553.000
37.81476 566.000
37.83504 542.000
37.85532 551.000
37.87560 604.000
37.89588 635.000
37.91616 652.000
37.93644 667.000
37.95672 694.000
37.97700 747.000
37.99728 720.000
38.01756 765.000
38.03784 780.000
38.05812 829.000
38.07840 741.000
38.09868 778.000
38.11896 712.000
38.13924 725.000
38.15952 775.000
38.17980 720.000
38.20008 621.000
38.22036 698.000
38.24064 638.000
38.26092 693.000
38.28120 692.000
38.30148 749.000
38.32176 783.000
38.34204 811.000
38.36232 825.000
38.38260 804.000
38.40288 875.000
38.42316 839.000
38.44344 935.000
38.46372 872.000
38.48400 862.000
38.50428 878.000
38.52456 890.000
38.54484 905.000
38.56512 812.000
38.58540 850.000
38.60568 815.000
38.62596 740.000
38.64624 736.000
38.66652 656.000
38.68680 706.000
38.70708 676.000
38.72736 687.000
38.74764 673.000
38.76792 625.000
38.78820 675.000
38.80848 630.000
38.82876 659.000
38.84904 709.000
38.86932 661.000
38.88960 740.000
38.90988 752.000
38.93016 764.000
38.95044 790.000
38.97072 796.000
38.99100 845.000
39.01128 914.000
39.03156 969.000
39.05184 980.000
39.07212 1055.000
39.09240 1118.000
39.11268 1036.000
39.13296 1044.000
39.15324 1014.000
39.17353 993.000
39.19381 922.000
39.21409 885.000
39.23437 837.000
39.25465 830.000
39.27493 778.000
39.29521 692.000
39.31549 705.000
39.33577 615.000
39.35605 644.000
39.37633 618.000
39.39661 617.000
39.41689 671.000
39.43717 668.000
39.45745 657.000
39.47773 648.000
39.49801 733.000
39.51829 693.000
39.53857 697.000
39.55885 716.000
39.57913 726.000
39.59941 730.000
39.61969 765.000
39.63997 722.000
39.66025 762.000
39.68053 793.000
39.70081 749.000
39.72109 721.000
39.74137 717.000
39.76165 667.000
39.78193 645.000
39.80221 675.000
39.82249 692.000
39.84277 655.000
39.86305 636.000
39.88333 679.000
39.90361 686.000
39.92389 657.000
39.94417 664.000
39.96445 667.000
39.98473 681.000
40.00501 661.000
40.02529 677.000
40.04557 712.000
40.06585 728.000
40.08613 706.000
40.10641 679.000
40.12669 706.000
40.14697 689.000
40.16725 696.000
40.18753 647.000
40.20781 696.000
40.22809 711.000
40.24837 694.000
40.26865 696.000
40.28893 663.000
40.30921 720.000
40.32949 712.000
40.34977 714.000
40.37005 771.000
40.39033 745.000
40.41061 823.000
40.43089 812.000
40.45117 939.000
40.47145 933.000
40.49173 989.000
40.51201 1033.000
40.53229 1118.000
40.55257 1162.000
40.57285 1156.000
40.59313 1202.000
40.61341 1177.000
40.63369 1245.000
40.65397 1102.000
40.67425 1191.000
40.69453 1143.000
40.71481 1034.000
40.73509 1024.000
40.75537 949.000
40.77565 871.000
40.79593 852.000
40.81621 778.000
40.83649 792.000
40.85677 685.000
40.87705 689.000
40.89733 645.000
40.91761 643.000
40.93789 637.000
40.95817 621.000
40.97845 611.000
40.99873 595.000
41.01901 652.000
41.03929 678.000
41.05957 667.000
41.07986 621.000
41.10014 609.000
41.12042 685.000
41.14070 628.000
41.16098 615.000
41.18126 674.000
41.20154 663.000
41.22182 629.000
41.24210 704.000
41.26238 638.000
41.28266 718.000
41.30294 714.000
41.32322 704.000
41.34350 682.000
41.36378 625.000
41.38406 661.000
41.40434 655.000
41.42462 660.000
41.44490 601.000
41.46518 606.000
41.48546 623.000
41.50574 593.000
41.52602 574.000
41.54630 533.000
41.56658 508.000
41.58686 501.000
41.60714 495.000
41.62742 526.000
41.64770 503.000
41.66798 529.000
41.68826 544.000
41.70854 526.000
41.72882 527.000
41.74910 526.000
41.76938 576.000
41.78966 628.000
41.80994 583.000
41.83022 609.000
41.85050 601.000
41.87078 598.000
41.89106 606.000
41.91134 604.000
41.93162 540.000
41.95190 539.000
41.97218 519.000
41.99246 547.000
42.01274 518.000
42.03302 484.000
42.05330 472.000
42.07358 516.000
42.09386 519.000
42.11414 499.000
42.13442 526.000
42.15470 525.000
42.17498 485.000
42.19526 522.000
42.21554 494.000
42.23582 476.000
42.25610 543.000
42.27638 528.000
42.29666 530.000
42.31694 526.000
42.33722 533.000
42.35750 557.000
42.37778 522.000
42.39806 525.000
42.41834 511.000
42.43862 554.000
42.45890 570.000
42.47918 553.000
42.49946 609.000
42.51974 574.000
42.54002 663.000
42.56030 642.000
42.58058 673.000
42.60086 681.000
42.62114 710.000
42.64142 707.000
42.66170 680.000
42.68198 689.000
42.70226 682.000
42.72254 689.000
42.74282 634.000
42.76310 708.000
42.78338 700.000
42.80366 663.000
42.82394 644.000
42.84422 624.000
42.86450 575.000
42.88478 558.000
42.90506 570.000
42.92534 561.000
42.94562 585.000
42.96590 610.000
42.98619 591.000
43.00647 590.000
43.02675 590.000
43.04703 588.000
43.06731 613.000
43.08759 598.000
43.10787 612.000
43.12815 608.000
43.14843 706.000
43.16871 670.000
43.18899 650.000
43.20927 705.000
43.22955 717.000
43.24983 731.000
43.27011 750.000
43.29039 711.000
43.31067 735.000
43.33095 723.000
43.35123 667.000
43.37151 699.000
43.39179 645.000
43.41207 702.000
43.43235 649.000
43.45263 686.000
43.47291 627.000
43.49319 677.000
43.51347 660.000
43.53375 628.000
43.55403 644.000
43.57431 653.000
43.59459 627.000
43.61487 638.000
43.63515 653.000
43.65543 702.000
43.67571 673.000
43.69599 692.000
43.71627 669.000
43.73655 730.000
43.75683 691.000
43.77711 746.000
43.79739 681.000
43.81767 737.000
43.83795 681.000
43.85823 714.000
43.87851 666.000
43.89879 710.000
43.91907 668.000
43.93935 644.000
43.95963 656.000
43.97991 679.000
44.00019 635.000
44.02047 677.000
44.04075 646.000
44.06103 630.000
44.08131 653.000
44.10159 603.000
44.12187 618.000
44.14215 634.000
44.16243 596.000
44.18271 642.000
44.20299 659.000
44.22327 639.000
44.24355 676.000
44.26383 675.000
44.28411 695.000
44.30439 648.000
44.32467 695.000
44.34495 741.000
44.36523 834.000
44.38551 852.000
44.40579 799.000
44.42607 797.000
44.44635 860.000
44.46663 939.000
44.48691 848.000
44.50719 867.000
44.52747 884.000
44.54775 864.000
44.56803 919.000
44.58831 915.000
44.60859 889.000
44.62887 882.000
44.64915 854.000
44.66943 866.000
44.68971 836.000
44.70999 826.000
44.73027 804.000
44.75055 813.000
44.77083 827.000
44.79111 832.000
44.81139 834.000
44.83167 810.000
44.85195 810.000
44.87223 790.000
44.89251 816.000
44.91280 766.000
44.93308 760.000
44.95336 745.000
44.97364 688.000
44.99392 670.000
45.01420 649.000
45.03448 651.000
45.05476 635.000
45.07504 663.000
45.09532 676.000
45.11560 718.000
45.13588 654.000
45.15616 717.000
45.17644 657.000
45.19672 701.000
45.21700 697.000
45.23728 709.000
45.25756 673.000
45.27784 640.000
45.29812 688.000
45.31840 653.000
45.33868 649.000
45.35896 672.000
45.37924 640.000
45.39952 679.000
45.41980 683.000
45.44008 670.000
45.46036 665.000
45.48064 662.000
45.50092 673.000
45.52120 659.000
45.54148 723.000
45.56176 703.000
45.58204 758.000
45.60232 719.000
45.62260 738.000
45.64288 677.000
45.66316 696.000
45.68344 725.000
45.70372 723.000
45.72400 663.000
45.74428 704.000
45.76456 625.000
45.78484 600.000
45.80512 651.000
45.82540 630.000
45.84568 649.000
45.86596 627.000
45.88624 621.000
45.90652 618.000
45.92680 617.000
45.94708 584.000
45.96736 594.000
45.98764 623.000
46.00792 550.000
46.02820 629.000
46.04848 608.000
46.06876 580.000
46.08904 603.000
46.10932 615.000
46.12960 578.000
46.14988 643.000
46.17016 694.000
46.19044 660.000
46.21072 676.000
46.23100 629.000
46.25128 676.000
46.27156 651.000
46.29184 686.000
46.31212 636.000
46.33240 663.000
46.35268 695.000
46.37296 714.000
46.39324 712.000
46.41352 683.000
46.43380 713.000
46.45408 705.000
46.47436 718.000
46.49464 757.000
46.51492 690.000
46.53520 732.000
46.55548 805.000
46.57576 826.000
46.59604 746.000
46.61632 792.000
46.63660 825.000
46.65688 715.000
46.67716 826.000
46.69744 747.000
46.71772 697.000
46.73800 744.000
46.75828 726.000
46.77856 694.000
46.79884 623.000
46.81913 672.000
46.83941 625.000
46.85969 629.000
46.87997 585.000
46.90025 618.000
46.92053 615.000
46.94081 549.000
46.96109 566.000
46.98137 626.000
47.00165 571.000
47.02193 632.000
47.04221 636.000
47.06249 587.000
47.08277 629.000
47.10305 602.000
47.12333 602.000
47.14361 660.000
47.16389 598.000
47.18417 603.000
47.20445 576.000
47.22473 616.000
47.24501 600.000
47.26529 566.000
47.28557 560.000
47.30585 575.000
47.32613 549.000
47.34641 596.000
47.36669 575.000
47.38697 622.000
47.40725 567.000
47.42753 580.000
47.44781 628.000
47.46809 568.000
47.48837 615.000
47.50865 662.000
47.52893 639.000
47.54921 612.000
47.56949 656.000
47.58977 629.000
47.61005 636.000
47.63033 602.000
47.65061 642.000
47.67089 607.000
47.69117 628.000
47.71145 617.000
47.73173 582.000
47.75201 580.000
47.77229 661.000
47.79257 658.000
47.81285 592.000
47.83313 559.000
47.85341 588.000
47.87369 613.000
47.89397 625.000
47.91425 586.000
47.93453 582.000
47.95481 617.000
47.97509 679.000
47.99537 653.000
48.01565 730.000
48.03593 676.000
48.05621 674.000
48.07649 663.000
48.09677 625.000
48.11705 642.000
48.13733 636.000
48.15761 621.000
48.17789 579.000
48.19817 652.000
48.21845 626.000
48.23873 574.000
48.25901 549.000
48.27929 617.000
48.29957 591.000
48.31985 592.000
48.34013 612.000
48.36041 611.000
48.38069 620.000
48.40097 598.000
48.42125 640.000
48.44153 586.000
48.46181 574.000
48.48209 634.000
48.50237 637.000
48.52265 577.000
48.54293 607.000
48.56321 570.000
48.58349 542.000
48.60377 560.000
48.62405 568.000
48.64433 564.000
48.66461 518.000
48.68489 582.000
48.70517 559.000
48.72546 562.000
48.74574 542.000
48.76602 558.000
48.78630 529.000
48.80658 529.000
48.82686 507.000
48.84714 566.000
48.86742 592.000
48.88770 569.000
48.90798 587.000
48.92826 595.000
48.94854 594.000
48.96882 613.000
48.98910 638.000
49.00938 659.000
49.02966 633.000
49.04994 599.000
49.07022 607.000
49.09050 648.000
49.11078 600.000
49.13106 578.000
49.15134 668.000
49.17162 652.000
49.19190 617.000
49.21218 657.000
49.23246 616.000
49.25274 597.000
49.27302 624.000
49.29330 599.000
49.31358 577.000
49.33386 547.000
49.35414 576.000
49.37442 538.000
49.39470 563.000
49.41498 600.000
49.43526 568.000
49.45554 575.000
49.47582 563.000
49.49610 578.000
49.51638 569.000
49.53666 495.000
49.55694 544.000
49.57722 545.000
49.59750 524.000
49.61778 504.000
49.63806 528.000
49.65834 532.000
49.67862 505.000
49.69890 520.000
49.71918 495.000
49.73946 512.000
49.75974 546.000
49.78002 528.000
49.80030 538.000
49.82058 496.000
49.84086 536.000
49.86114 580.000
49.88142 531.000
49.90170 562.000
49.92198 541.000
49.94226 533.000
49.96254 515.000
49.98282 539.000
50.00310 515.000
