5.00155 904.000
5.01980 842.000
5.03805 813.000
5.05630 850.000
5.07455 800.000
5.09281 796.000
5.11106 808.000
5.12931 821.000
5.14756 779.000
5.16581 788.000
5.18407 848.000
5.20232 702.000
5.22057 734.000
5.23882 822.000
5.25708 736.000
5.27533 725.000
5.29358 737.000
5.31183 756.000
5.33008 743.000
5.34834 688.000
5.36659 725.000
5.38484 706.000
5.40309 686.000
5.42134 697.000
5.43960 662.000
5.45785 697.000
5.47610 730.000
5.49435 621.000
5.51260 632.000
5.53086 679.000
5.54911 676.000
5.56736 601.000
5.58561 618.000
5.60387 630.000
5.62212 647.000
5.64037 572.000
5.65862 673.000
5.67687 606.000
5.69513 644.000
5.71338 614.000
5.73163 547.000
5.74988 587.000
5.76813 582.000
5.78639 572.000
5.80464 571.000
5.82289 532.000
5.84114 550.000
5.85939 577.000
5.87765 538.000
5.89590 574.000
5.91415 554.000
5.93240 529.000
5.95065 499.000
5.96891 573.000
5.98716 504.000
6.00541 539.000
6.02366 501.000
6.04192 480.000
6.06017 529.000
6.07842 510.000
6.09667 495.000
6.11492 513.000
6.13318 511.000
6.15143 515.000
6.16968 527.000
6.18793 545.000
6.20618 515.000
6.22444 519.000
6.24269 547.000
6.26094 591.000
6.27919 541.000
6.29744 591.000
6.31570 627.000
6.33395 677.000
6.35220 733.000
6.37045 828.000
6.38871 866.000
6.40696 910.000
6.42521 913.000
6.44346 826.000
6.46171 695.000
6.47997 649.000
6.49822 565.000
6.51647 530.000
6.53472 503.000
6.55297 465.000
6.57123 481.000
6.58948 443.000
6.60773 457.000
6.62598 419.000
6.64423 454.000
6.66249 457.000
6.68074 478.000
6.69899 428.000
6.71724 417.000
6.73550 467.000
6.75375 431.000
6.77200 460.000
6.79025 396.000
6.80850 425.000
6.82676 377.000
6.84501 397.000
6.86326 470.000
6.88151 404.000
6.89976 470.000
6.91802 423.000
6.93627 382.000
6.95452 437.000
6.97277 410.000
6.99102 405.000
7.00928 438.000
7.02753 406.000
7.04578 404.000
7.06403 396.000
7.08228 438.000
7.10054 424.000
7.11879 372.000
7.13704 380.000
7.15529 370.000
7.17355 397.000
7.19180 401.000
7.21005 422.000
7.22830 383.000
7.24655 370.000
7.26481 379.000
7.28306 381.000
7.30131 411.000
7.31956 365.000
7.33781 383.000
7.35607 354.000
7.37432 386.000
7.39257 361.000
7.41082 338.000
7.42907 367.000
7.44733 371.000
7.46558 375.000
7.48383 374.000
7.50208 381.000
7.52034 375.000
7.53859 423.000
7.55684 382.000
7.57509 357.000
7.59334 366.000
7.61160 360.000
7.62985 334.000
7.64810 361.000
7.66635 386.000
7.68460 354.000
7.70286 366.000
7.72111 368.000
7.73936 370.000
7.75761 381.000
7.77586 364.000
7.79412 346.000
7.81237 399.000
7.83062 397.000
7.84887 391.000
7.86712 375.000
7.88538 382.000
7.90363 394.000
7.92188 380.000
7.94013 349.000
7.95839 365.000
7.97664 372.000
7.99489 347.000
8.01314 347.000
8.03139 333.000
8.04965 349.000
8.06790 381.000
8.08615 356.000
8.10440 386.000
8.12265 410.000
8.14091 374.000
8.15916 399.000
8.17741 382.000
8.19566 427.000
8.21391 439.000
8.23217 347.000
8.25042 426.000
8.26867 449.000
8.28692 396.000
8.30518 457.000
8.32343 445.000
8.34168 506.000
8.35993 532.000
8.37818 552.000
8.39644 615.000
8.41469 662.000
8.43294 750.000
8.45119 848.000
8.46944 1054.000
8.48770 1264.000
8.50595 1649.000
8.52420 2118.000
8.54245 2745.000
8.56070 3690.000
8.57896 4852.000
8.59721 5981.000
8.61546 6922.000
8.63371 7351.000
8.65197 6882.000
8.67022 5371.000
8.68847 3703.000
8.70672 2238.000
8.72497 1437.000
8.74323 979.000
8.76148 792.000
8.77973 678.000
8.79798 532.000
8.81623 610.000
8.83449 583.000
8.85274 551.000
8.87099 560.000
8.88924 466.000
8.90749 501.000
8.92575 443.000
8.94400 464.000
8.96225 462.000
8.98050 421.000
8.99875 463.000
9.01701 415.000
9.03526 398.000
9.05351 437.000
9.07176 430.000
9.09002 396.000
9.10827 408.000
9.12652 459.000
9.14477 437.000
9.16302 453.000
9.18128 440.000
9.19953 470.000
9.21778 470.000
9.23603 495.000
9.25428 497.000
9.27254 512.000
9.29079 617.000
9.30904 648.000
9.32729 679.000
9.34554 821.000
9.36380 1019.000
9.38205 1224.000
9.40030 1608.000
9.41855 1949.000
9.43681 2468.000
9.45506 2759.000
9.47331 3126.000
9.49156 3066.000
9.50981 2642.000
9.52807 1985.000
9.54632 1392.000
9.56457 952.000
9.58282 755.000
9.60107 690.000
9.61933 640.000
9.63758 629.000
9.65583 668.000
9.67408 743.000
9.69233 815.000
9.71059 1022.000
9.72884 1135.000
9.74709 1453.000
9.76534 1767.000
9.78360 2265.000
9.80185 2795.000
9.82010 3298.000
9.83835 3713.000
9.85660 3897.000
9.87486 3351.000
9.89311 2530.000
9.91136 1735.000
9.92961 1175.000
9.94786 866.000
9.96612 673.000
9.98437 570.000
10.00262 545.000
10.02087 547.000
10.03912 587.000
10.05738 475.000
10.07563 442.000
10.09388 465.000
10.11213 441.000
10.13038 449.000
10.14864 381.000
10.16689 442.000
10.18514 420.000
10.20339 417.000
10.22165 397.000
10.23990 391.000
10.25815 361.000
10.27640 404.000
10.29465 359.000
10.31291 414.000
10.33116 454.000
10.34941 426.000
10.36766 440.000
10.38591 468.000
10.40417 499.000
10.42242 441.000
10.44067 481.000
10.45892 425.000
10.47717 419.000
10.49543 430.000
10.51368 400.000
10.53193 362.000
10.55018 422.000
10.56844 391.000
10.58669 398.000
10.60494 350.000
10.62319 420.000
10.64144 401.000
10.65970 430.000
10.67795 406.000
10.69620 421.000
10.71445 418.000
10.73270 459.000
10.75096 501.000
10.76921 550.000
10.78746 632.000
10.80571 665.000
10.82396 771.000
10.84222 970.000
10.86047 1168.000
10.87872 1395.000
10.89697 1681.000
10.91522 1817.000
10.93348 1832.000
10.95173 1785.000
10.96998 1493.000
10.98823 1099.000
11.00649 858.000
11.02474 613.000
11.04299 532.000
11.06124 411.000
11.07949 447.000
11.09775 426.000
11.11600 412.000
11.13425 371.000
11.15250 371.000
11.17075 364.000
11.18901 360.000
11.20726 369.000
11.22551 338.000
11.24376 349.000
11.26201 380.000
11.28027 359.000
11.29852 369.000
11.31677 360.000
11.33502 339.000
11.35328 328.000
11.37153 351.000
11.38978 369.000
11.40803 364.000
11.42628 337.000
11.44454 361.000
11.46279 334.000
11.48104 384.000
11.49929 302.000
11.51754 321.000
11.53580 336.000
11.55405 324.000
11.57230 334.000
11.59055 354.000
11.60880 333.000
11.62706 342.000
11.64531 316.000
11.66356 307.000
11.68181 350.000
11.70007 350.000
11.71832 308.000
11.73657 327.000
11.75482 323.000
11.77307 309.000
11.79133 359.000
11.80958 298.000
11.82783 287.000
11.84608 317.000
11.86433 310.000
11.88259 301.000
11.90084 288.000
11.91909 318.000
11.93734 343.000
11.95559 366.000
11.97385 318.000
11.99210 350.000
12.01035 364.000
12.02860 337.000
12.04685 327.000
12.06511 328.000
12.08336 338.000
12.10161 309.000
12.11986 324.000
12.13812 296.000
12.15637 351.000
12.17462 353.000
12.19287 335.000
12.21112 304.000
12.22938 338.000
12.24763 344.000
12.26588 343.000
12.28413 380.000
12.30238 365.000
12.32064 376.000
12.33889 383.000
12.35714 380.000
12.37539 404.000
12.39364 386.000
12.41190 385.000
12.43015 379.000
12.44840 338.000
12.46665 320.000
12.48491 345.000
12.50316 332.000
12.52141 318.000
12.53966 349.000
12.55791 301.000
12.57617 292.000
12.59442 344.000
12.61267 332.000
12.63092 338.000
12.64917 334.000
12.66743 316.000
12.68568 340.000
12.70393 340.000
12.72218 341.000
12.74043 366.000
12.75869 302.000
12.77694 349.000
12.79519 366.000
12.81344 343.000
12.83170 357.000
12.84995 362.000
12.86820 386.000
12.88645 451.000
12.90470 397.000
12.92296 437.000
12.94121 443.000
12.95946 474.000
12.97771 486.000
12.99596 464.000
13.01422 425.000
13.03247 408.000
13.05072 421.000
13.06897 420.000
13.08722 384.000
13.10548 445.000
13.12373 502.000
13.14198 518.000
13.16023 490.000
13.17848 561.000
13.19674 687.000
13.21499 698.000
13.23324 844.000
13.25149 839.000
13.26975 799.000
13.28800 666.000
13.30625 581.000
13.32450 518.000
13.34275 449.000
13.36101 418.000
13.37926 447.000
13.39751 422.000
13.41576 411.000
13.43401 458.000
13.45227 470.000
13.47052 488.000
13.48877 546.000
13.50702 583.000
13.52527 610.000
13.54353 711.000
13.56178 767.000
13.58003 947.000
13.59828 1085.000
13.61654 1217.000
13.63479 1559.000
13.65304 1764.000
13.67129 1982.000
13.68954 2085.000
13.70780 2176.000
13.72605 2103.000
13.74430 2182.000
13.76255 2227.000
13.78080 2376.000
13.79906 2478.000
13.81731 2318.000
13.83556 1771.000
13.85381 1431.000
13.87206 907.000
13.89032 659.000
13.90857 596.000
13.92682 469.000
13.94507 451.000
13.96332 452.000
13.98158 452.000
13.99983 409.000
14.01808 410.000
14.03633 399.000
14.05459 394.000
14.07284 412.000
14.09109 426.000
14.10934 413.000
14.12759 341.000
14.14585 398.000
14.16410 352.000
14.18235 354.000
14.20060 359.000
14.21885 374.000
14.23711 396.000
14.25536 356.000
14.27361 350.000
14.29186 408.000
14.31011 365.000
14.32837 380.000
14.34662 370.000
14.36487 340.000
14.38312 386.000
14.40138 376.000
14.41963 385.000
14.43788 412.000
14.45613 381.000
14.47438 380.000
14.49264 376.000
14.51089 343.000
14.52914 354.000
14.54739 346.000
14.56564 384.000
14.58390 405.000
14.60215 404.000
14.62040 386.000
14.63865 401.000
14.65690 372.000
14.67516 448.000
14.69341 460.000
14.71166 407.000
14.72991 503.000
14.74817 473.000
14.76642 533.000
14.78467 550.000
14.80292 585.000
14.82117 697.000
14.83943 731.000
14.85768 847.000
14.87593 931.000
14.89418 886.000
14.91243 770.000
14.93069 636.000
14.94894 532.000
14.96719 423.000
14.98544 440.000
15.00369 407.000
15.02195 434.000
15.04020 399.000
15.05845 419.000
15.07670 433.000
15.09495 413.000
15.11321 399.000
15.13146 393.000
15.14971 383.000
15.16796 391.000
15.18622 381.000
15.20447 390.000
15.22272 416.000
15.24097 373.000
15.25922 375.000
15.27748 429.000
15.29573 431.000
15.31398 380.000
15.33223 414.000
15.35048 425.000
15.36874 383.000
15.38699 487.000
15.40524 417.000
15.42349 486.000
15.44174 483.000
15.46000 509.000
15.47825 510.000
15.49650 544.000
15.51475 608.000
15.53301 696.000
15.55126 772.000
15.56951 839.000
15.58776 939.000
15.60601 891.000
15.62427 898.000
15.64252 885.000
15.66077 798.000
15.67902 753.000
15.69727 715.000
15.71553 718.000
15.73378 658.000
15.75203 647.000
15.77028 636.000
15.78853 627.000
15.80679 597.000
15.82504 644.000
15.84329 642.000
15.86154 750.000
15.87979 884.000
15.89805 882.000
15.91630 1072.000
15.93455 1170.000
15.95280 1530.000
15.97106 1692.000
15.98931 2222.000
16.00756 2879.000
16.02581 3377.000
16.04406 4037.000
16.06232 4439.000
16.08057 4245.000
16.09882 3711.000
16.11707 2803.000
16.13532 2054.000
16.15358 1433.000
16.17183 1049.000
16.19008 899.000
16.20833 772.000
16.22658 709.000
16.24484 713.000
16.26309 747.000
16.28134 736.000
16.29959 833.000
16.31785 864.000
16.33610 1008.000
16.35435 1074.000
16.37260 1247.000
16.39085 1278.000
16.40911 1302.000
16.42736 1345.000
16.44561 1206.000
16.46386 1140.000
16.48211 1150.000
16.50037 1088.000
16.51862 1131.000
16.53687 1306.000
16.55512 1536.000
16.57337 1639.000
16.59163 2117.000
16.60988 2470.000
16.62813 3022.000
16.64638 3328.000
16.66464 3398.000
16.68289 3215.000
16.70114 2513.000
16.71939 1978.000
16.73764 1450.000
16.75590 1096.000
16.77415 827.000
16.79240 766.000
16.81065 717.000
16.82890 680.000
16.84716 664.000
16.86541 660.000
16.88366 647.000
16.90191 652.000
16.92016 619.000
16.93842 584.000
16.95667 641.000
16.97492 636.000
16.99317 628.000
17.01142 635.000
17.02968 692.000
17.04793 703.000
17.06618 706.000
17.08443 811.000
17.10269 829.000
17.12094 837.000
17.13919 1047.000
17.15744 1145.000
17.17569 1271.000
17.19395 1568.000
17.21220 1702.000
17.23045 2074.000
17.24870 2469.000
17.26695 2974.000
17.28521 3329.000
17.30346 3843.000
17.32171 4076.000
17.33996 3987.000
17.35821 3481.000
17.37647 2822.000
17.39472 2201.000
17.41297 1638.000
17.43122 1263.000
17.44948 1080.000
17.46773 1081.000
17.48598 972.000
17.50423 1030.000
17.52248 1119.000
17.54074 1300.000
17.55899 1415.000
17.57724 1568.000
17.59549 1819.000
17.61374 2141.000
17.63200 2451.000
17.65025 3083.000
17.66850 3604.000
17.68675 4143.000
17.70500 4822.000
17.72326 5247.000
17.74151 5592.000
17.75976 5309.000
17.77801 4503.000
17.79627 3618.000
17.81452 2774.000
17.83277 2255.000
17.85102 1674.000
17.86927 1463.000
17.88753 1416.000
17.90578 1451.000
17.92403 1395.000
17.94228 1451.000
17.96053 1400.000
17.97879 1268.000
17.99704 1238.000
18.01529 996.000
18.03354 1055.000
18.05179 1063.000
18.07005 1051.000
18.08830 1076.000
18.10655 1203.000
18.12480 1319.000
18.14305 1491.000
18.16131 1736.000
18.17956 2019.000
18.19781 2257.000
18.21606 2692.000
18.23432 3229.000
18.25257 3632.000
18.27082 4065.000
18.28907 4559.000
18.30732 5010.000
18.32558 5441.000
18.34383 5943.000
18.36208 6238.000
18.38033 6030.000
18.39858 5073.000
18.41684 4061.000
18.43509 3082.000
18.45334 2209.000
18.47159 1616.000
18.48984 1309.000
18.50810 1121.000
18.52635 1051.000
18.54460 1002.000
18.56285 929.000
18.58111 957.000
18.59936 908.000
18.61761 911.000
18.63586 948.000
18.65411 963.000
18.67237 1009.000
18.69062 1064.000
18.70887 1069.000
18.72712 1226.000
18.74537 1322.000
18.76363 1440.000
18.78188 1655.000
18.80013 1947.000
18.81838 2189.000
18.83663 2403.000
18.85489 2695.000
18.87314 2931.000
18.89139 2970.000
18.90964 2848.000
18.92789 2531.000
18.94615 2355.000
18.96440 2032.000
18.98265 1865.000
19.00090 1738.000
19.01916 1612.000
19.03741 1445.000
19.05566 1359.000
19.07391 1101.000
19.09216 1012.000
19.11042 1006.000
19.12867 892.000
19.14692 893.000
19.16517 955.000
19.18342 865.000
19.20168 972.000
19.21993 1054.000
19.23818 1142.000
19.25643 1268.000
19.27468 1300.000
19.29294 1358.000
19.31119 1377.000
19.32944 1385.000
19.34769 1533.000
19.36595 1660.000
19.38420 1730.000
19.40245 1902.000
19.42070 2307.000
19.43895 2529.000
19.45721 2783.000
19.47546 2995.000
19.49371 2941.000
19.51196 2895.000
19.53021 2459.000
19.54847 2106.000
19.56672 1932.000
19.58497 1631.000
19.60322 1481.000
19.62147 1467.000
19.63973 1630.000
19.65798 1808.000
19.67623 1934.000
19.69448 2151.000
19.71274 2388.000
19.73099 2601.000
19.74924 2787.000
19.76749 2679.000
19.78574 2580.000
19.80400 2316.000
19.82225 2099.000
19.84050 1996.000
19.85875 1925.000
19.87700 2029.000
19.89526 2221.000
19.91351 2422.000
19.93176 2886.000
19.95001 3308.000
19.96826 3798.000
19.98652 4338.000
20.00477 4889.000
20.02302 5066.000
20.04127 5016.000
20.05952 4341.000
20.07778 3667.000
20.09603 2814.000
20.11428 2311.000
20.13253 1849.000
20.15079 1631.000
20.16904 1486.000
20.18729 1428.000
20.20554 1438.000
20.22379 1431.000
20.24205 1514.000
20.26030 1550.000
20.27855 1577.000
20.29680 1751.000
20.31505 1779.000
20.33331 1733.000
20.35156 1753.000
20.36981 1613.000
20.38806 1544.000
20.40631 1500.000
20.42457 1497.000
20.44282 1442.000
20.46107 1655.000
20.47932 1803.000
20.49758 1986.000
20.51583 2286.000
20.53408 2551.000
20.55233 2940.000
20.57058 3176.000
20.58884 3483.000
20.60709 3689.000
20.62534 3502.000
20.64359 3018.000
20.66184 2537.000
20.68010 2147.000
20.69835 1613.000
20.71660 1321.000
20.73485 1123.000
20.75310 1094.000
20.77136 980.000
20.78961 1067.000
20.80786 1039.000
20.82611 1020.000
20.84436 1127.000
20.86262 1187.000
20.88087 1213.000
20.89912 1305.000
20.91737 1265.000
20.93563 1194.000
20.95388 1175.000
20.97213 1015.000
20.99038 978.000
21.00863 939.000
21.02689 927.000
21.04514 911.000
21.06339 858.000
21.08164 880.000
21.09989 934.000
21.11815 930.000
21.13640 978.000
21.15465 983.000
21.17290 1021.000
21.19115 1103.000
21.20941 1168.000
21.22766 1316.000
21.24591 1388.000
21.26416 1425.000
21.28242 1519.000
21.30067 1544.000
21.31892 1588.000
21.33717 1659.000
21.35542 1852.000
21.37368 2109.000
21.39193 2337.000
21.41018 2682.000
21.42843 2844.000
21.44668 3053.000
21.46494 3014.000
21.48319 2894.000
21.50144 2737.000
21.51969 2736.000
21.53794 2761.000
21.55620 2923.000
21.57445 3416.000
21.59270 3914.000
21.61095 4313.000
21.62921 5021.000
21.64746 5579.000
21.66571 6045.000
21.68396 5858.000
21.70221 4927.000
21.72047 4183.000
21.73872 3320.000
21.75697 2495.000
21.77522 1879.000
21.79347 1520.000
21.81173 1313.000
21.82998 1166.000
21.84823 1123.000
21.86648 1081.000
21.88473 1129.000
21.90299 1118.000
21.92124 1172.000
21.93949 1190.000
21.95774 1214.000
21.97599 1309.000
21.99425 1256.000
22.01250 1417.000
22.03075 1446.000
22.04900 1535.000
22.06726 1746.000
22.08551 1842.000
22.10376 2116.000
22.12201 2442.000
22.14026 2773.000
22.15852 3134.000
22.17677 3441.000
22.19502 3306.000
22.21327 2950.000
22.23152 2363.000
22.24978 1886.000
22.26803 1441.000
22.28628 1217.000
22.30453 976.000
22.32278 914.000
22.34104 855.000
22.35929 858.000
22.37754 815.000
22.39579 787.000
22.41405 840.000
22.43230 853.000
22.45055 931.000
22.46880 910.000
22.48705 984.000
22.50531 1025.000
22.52356 1042.000
22.54181 1049.000
22.56006 1098.000
22.57831 1058.000
22.59657 1137.000
22.61482 1175.000
22.63307 1198.000
22.65132 1279.000
22.66957 1395.000
22.68783 1434.000
22.70608 1601.000
22.72433 1662.000
22.74258 1675.000
22.76084 1463.000
22.77909 1416.000
22.79734 1241.000
22.81559 1100.000
22.83384 908.000
22.85210 872.000
22.87035 857.000
22.88860 812.000
22.90685 767.000
22.92510 722.000
22.94336 735.000
22.96161 790.000
22.97986 845.000
22.99811 871.000
23.01636 917.000
23.03462 955.000
23.05287 966.000
23.07112 1002.000
23.08937 933.000
23.10762 879.000
23.12588 779.000
23.14413 820.000
23.16238 742.000
23.18063 718.000
23.19889 798.000
23.21714 773.000
23.23539 823.000
23.25364 885.000
23.27189 853.000
23.29015 923.000
23.30840 1015.000
23.32665 1054.000
23.34490 1244.000
23.36315 1291.000
23.38141 1462.000
23.39966 1602.000
23.41791 1749.000
23.43616 1739.000
23.45441 1583.000
23.47267 1538.000
23.49092 1290.000
23.50917 1252.000
23.52742 1003.000
23.54568 928.000
23.56393 866.000
23.58218 896.000
23.60043 986.000
23.61868 1031.000
23.63694 1092.000
23.65519 1180.000
23.67344 1211.000
23.69169 1220.000
23.70994 1127.000
23.72820 1071.000
23.74645 1016.000
23.76470 897.000
23.78295 909.000
23.80120 936.000
23.81946 911.000
23.83771 978.000
23.85596 1080.000
23.87421 1142.000
23.89246 1230.000
23.91072 1292.000
23.92897 1307.000
23.94722 1336.000
23.96547 1306.000
23.98373 1353.000
24.00198 1340.000
24.02023 1297.000
24.03848 1327.000
24.05673 1323.000
24.07499 1322.000
24.09324 1317.000
24.11149 1339.000
24.12974 1334.000
24.14799 1478.000
24.16625 1439.000
24.18450 1476.000
24.20275 1384.000
24.22100 1223.000
24.23925 1139.000
24.25751 1053.000
24.27576 958.000
24.29401 882.000
24.31226 802.000
24.33052 815.000
24.34877 865.000
24.36702 867.000
24.38527 916.000
24.40352 922.000
24.42178 1004.000
24.44003 905.000
24.45828 951.000
24.47653 829.000
24.49478 835.000
24.51304 776.000
24.53129 736.000
24.54954 782.000
24.56779 800.000
24.58604 824.000
24.60430 863.000
24.62255 944.000
24.64080 1022.000
24.65905 1082.000
24.67731 1159.000
24.69556 1280.000
24.71381 1408.000
24.73206 1448.000
24.75031 1492.000
24.76857 1357.000
24.78682 1306.000
24.80507 1238.000
24.82332 1156.000
24.84157 1138.000
24.85983 1065.000
24.87808 1025.000
24.89633 923.000
24.91458 829.000
24.93283 764.000
24.95109 743.000
24.96934 731.000
24.98759 694.000
25.00584 676.000
25.02409 763.000
25.04235 727.000
25.06060 758.000
25.07885 835.000
25.09710 857.000
25.11536 981.000
25.13361 1047.000
25.15186 1140.000
25.17011 1253.000
25.18836 1318.000
25.20662 1504.000
25.22487 1666.000
25.24312 1883.000
25.26137 2214.000
25.27962 2396.000
25.29788 2708.000
25.31613 2835.000
25.33438 2852.000
25.35263 2555.000
25.37088 2289.000
25.38914 2091.000
25.40739 1848.000
25.42564 1631.000
25.44389 1495.000
25.46215 1389.000
25.48040 1175.000
25.49865 1034.000
25.51690 888.000
25.53515 889.000
25.55341 838.000
25.57166 748.000
25.58991 751.000
25.60816 814.000
25.62641 794.000
25.64467 812.000
25.66292 883.000
25.68117 949.000
25.69942 983.000
25.71767 1086.000
25.73593 1192.000
25.75418 1263.000
25.77243 1413.000
25.79068 1486.000
25.80893 1470.000
25.82719 1346.000
25.84544 1261.000
25.86369 1144.000
25.88194 1023.000
25.90020 992.000
25.91845 967.000
25.93670 974.000
25.95495 946.000
25.97320 1019.000
25.99146 1099.000
26.00971 1210.000
26.02796 1288.000
26.04621 1502.000
26.06446 1463.000
26.08272 1664.000
26.10097 1642.000
26.11922 1644.000
26.13747 1400.000
26.15572 1372.000
26.17398 1279.000
26.19223 1192.000
26.21048 1142.000
26.22873 1084.000
26.24699 1095.000
26.26524 1159.000
26.28349 1184.000
26.30174 1242.000
26.31999 1279.000
26.33825 1214.000
26.35650 1203.000
26.37475 1184.000
26.39300 1162.000
26.41125 1154.000
26.42951 1091.000
26.44776 1246.000
26.46601 1342.000
26.48426 1397.000
26.50251 1353.000
26.52077 1237.000
26.53902 1075.000
26.55727 990.000
26.57552 892.000
26.59378 755.000
26.61203 685.000
26.63028 657.000
26.64853 633.000
26.66678 632.000
26.68504 650.000
26.70329 611.000
26.72154 628.000
26.73979 698.000
26.75804 695.000
26.77630 675.000
26.79455 709.000
26.81280 775.000
26.83105 845.000
26.84930 897.000
26.86756 896.000
26.88581 916.000
26.90406 978.000
26.92231 966.000
26.94056 866.000
26.95882 783.000
26.97707 736.000
26.99532 675.000
27.01357 638.000
27.03183 564.000
27.05008 548.000
27.06833 516.000
27.08658 533.000
27.10483 498.000
27.12309 535.000
27.14134 494.000
27.15959 494.000
27.17784 530.000
27.19609 521.000
27.21435 585.000
27.23260 531.000
27.25085 630.000
27.26910 654.000
27.28735 660.000
27.30561 691.000
27.32386 710.000
27.34211 680.000
27.36036 642.000
27.37862 653.000
27.39687 623.000
27.41512 632.000
27.43337 673.000
27.45162 663.000
27.46988 700.000
27.48813 683.000
27.50638 740.000
27.52463 720.000
27.54288 680.000
27.56114 655.000
27.57939 637.000
27.59764 606.000
27.61589 559.000
27.63414 556.000
27.65240 520.000
27.67065 498.000
27.68890 483.000
27.70715 471.000
27.72541 495.000
27.74366 495.000
27.76191 514.000
27.78016 508.000
27.79841 491.000
27.81667 506.000
27.83492 521.000
27.85317 476.000
27.87142 500.000
27.88967 548.000
27.90793 505.000
27.92618 567.000
27.94443 553.000
27.96268 585.000
27.98093 584.000
27.99919 548.000
28.01744 468.000
28.03569 495.000
28.05394 467.000
28.07219 521.000
28.09045 501.000
28.10870 448.000
28.12695 455.000
28.14520 521.000
28.16346 518.000
28.18171 481.000
28.19996 467.000
28.21821 498.000
28.23646 552.000
28.25472 501.000
28.27297 555.000
28.29122 570.000
28.30947 610.000
28.32772 629.000
28.34598 649.000
28.36423 741.000
28.38248 727.000
28.40073 799.000
28.41898 910.000
28.43724 1010.000
28.45549 1067.000
28.47374 1205.000
28.49199 1334.000
28.51025 1407.000
28.52850 1524.000
28.54675 1507.000
28.56500 1549.000
28.58325 1504.000
28.60151 1433.000
28.61976 1370.000
28.63801 1368.000
28.65626 1335.000
28.67451 1255.000
28.69277 1136.000
28.71102 1081.000
28.72927 1166.000
28.74752 1080.000
28.76577 1011.000
28.78403 895.000
28.80228 819.000
28.82053 746.000
28.83878 710.000
28.85703 642.000
28.87529 535.000
28.89354 536.000
28.91179 529.000
28.93004 463.000
28.94830 510.000
28.96655 447.000
28.98480 484.000
29.00305 499.000
29.02130 476.000
29.03956 499.000
29.05781 520.000
29.07606 546.000
29.09431 508.000
29.11256 540.000
29.13082 509.000
29.14907 547.000
29.16732 547.000
29.18557 611.000
29.20382 609.000
29.22208 574.000
29.24033 552.000
29.25858 574.000
29.27683 553.000
29.29509 538.000
29.31334 536.000
29.33159 489.000
29.34984 459.000
29.36809 493.000
29.38635 516.000
29.40460 467.000
29.42285 474.000
29.44110 492.000
29.45935 474.000
29.47761 480.000
29.49586 535.000
29.51411 520.000
29.53236 530.000
29.55061 505.000
29.56887 605.000
29.58712 613.000
29.60537 695.000
29.62362 708.000
29.64188 762.000
29.66013 830.000
29.67838 884.000
29.69663 930.000
29.71488 980.000
29.73314 1042.000
29.75139 1184.000
29.76964 1204.000
29.78789 1301.000
29.80614 1335.000
29.82440 1265.000
29.84265 1169.000
29.86090 1135.000
29.87915 1091.000
29.89740 1055.000
29.91566 1022.000
29.93391 1010.000
29.95216 960.000
29.97041 995.000
29.98866 1046.000
30.00692 1079.000
30.02517 1082.000
30.04342 1070.000
30.06167 1181.000
30.07993 1063.000
30.09818 980.000
30.11643 1029.000
30.13468 965.000
30.15293 912.000
30.17119 957.000
30.18944 929.000
30.20769 793.000
30.22594 806.000
30.24419 768.000
30.26245 771.000
30.28070 726.000
30.29895 744.000
30.31720 694.000
30.33545 728.000
30.35371 657.000
30.37196 669.000
30.39021 635.000
30.40846 596.000
30.42672 589.000
30.44497 495.000
30.46322 468.000
30.48147 500.000
30.49972 473.000
30.51798 442.000
30.53623 478.000
30.55448 418.000
30.57273 444.000
30.59098 451.000
30.60924 474.000
30.62749 466.000
30.64574 488.000
30.66399 518.000
30.68224 499.000
30.70050 560.000
30.71875 557.000
30.73700 503.000
30.75525 539.000
30.77351 536.000
30.79176 581.000
30.81001 539.000
30.82826 585.000
30.84651 576.000
30.86477 610.000
30.88302 653.000
30.90127 670.000
30.91952 618.000
30.93777 647.000
30.95603 614.000
30.97428 642.000
30.99253 583.000
31.01078 546.000
31.02903 569.000
31.04729 568.000
31.06554 537.000
31.08379 522.000
31.10204 584.000
31.12029 573.000
31.13855 583.000
31.15680 652.000
31.17505 590.000
31.19330 660.000
31.21156 709.000
31.22981 689.000
31.24806 705.000
31.26631 739.000
31.28456 795.000
31.30282 833.000
31.32107 855.000
31.33932 883.000
31.35757 830.000
31.37582 851.000
31.39408 828.000
31.41233 856.000
31.43058 821.000
31.44883 797.000
31.46708 819.000
31.48534 833.000
31.50359 890.000
31.52184 965.000
31.54009 1006.000
31.55835 1146.000
31.57660 1141.000
31.59485 1229.000
31.61310 1247.000
31.63135 1319.000
31.64961 1235.000
31.66786 1284.000
31.68611 1228.000
31.70436 1116.000
31.72261 1039.000
31.74087 1029.000
31.75912 921.000
31.77737 864.000
31.79562 830.000
31.81387 771.000
31.83213 782.000
31.85038 730.000
31.86863 747.000
31.88688 724.000
31.90513 755.000
31.92339 739.000
31.94164 740.000
31.95989 805.000
31.97814 871.000
31.99640 850.000
32.01465 917.000
32.03290 893.000
32.05115 858.000
32.06940 842.000
32.08766 815.000
32.10591 749.000
32.12416 722.000
32.14241 671.000
32.16066 650.000
32.17892 575.000
32.19717 522.000
32.21542 559.000
32.23367 532.000
32.25192 505.000
32.27018 527.000
32.28843 553.000
32.30668 560.000
32.32493 582.000
32.34319 587.000
32.36144 598.000
32.37969 615.000
32.39794 586.000
32.41619 589.000
32.43445 573.000
32.45270 576.000
32.47095 499.000
32.48920 489.000
32.50745 489.000
32.52571 504.000
32.54396 460.000
32.56221 480.000
32.58046 463.000
32.59871 497.000
32.61697 517.000
32.63522 485.000
32.65347 492.000
32.67172 499.000
32.68998 466.000
32.70823 422.000
32.72648 443.000
32.74473 444.000
32.76298 456.000
32.78124 454.000
32.79949 479.000
32.81774 451.000
32.83599 442.000
32.85424 477.000
32.87250 438.000
32.89075 445.000
32.90900 507.000
32.92725 479.000
32.94550 464.000
32.96376 522.000
32.98201 532.000
33.00026 533.000
33.01851 524.000
33.03676 546.000
33.05502 573.000
33.07327 621.000
33.09152 672.000
33.10977 667.000
33.12803 667.000
33.14628 689.000
33.16453 697.000
33.18278 611.000
33.20103 650.000
33.21929 578.000
33.23754 559.000
33.25579 581.000
33.27404 508.000
33.29229 528.000
33.31055 497.000
33.32880 450.000
33.34705 468.000
33.36530 497.000
33.38355 528.000
33.40181 527.000
33.42006 497.000
33.43831 545.000
33.45656 505.000
33.47482 540.000
33.49307 517.000
33.51132 605.000
33.52957 575.000
33.54782 603.000
33.56608 629.000
33.58433 609.000
33.60258 651.000
33.62083 749.000
33.63908 746.000
33.65734 759.000
33.67559 760.000
33.69384 684.000
33.71209 658.000
33.73034 656.000
33.74860 596.000
33.76685 554.000
33.78510 543.000
33.80335 500.000
33.82160 496.000
33.83986 477.000
33.85811 444.000
33.87636 464.000
33.89461 472.000
33.91287 438.000
33.93112 489.000
33.94937 451.000
33.96762 460.000
33.98587 439.000
34.00413 421.000
34.02238 478.000
34.04063 414.000
34.05888 435.000
34.07713 434.000
34.09539 468.000
34.11364 417.000
34.13189 442.000
34.15014 464.000
34.16839 417.000
34.18665 436.000
34.20490 429.000
34.22315 420.000
34.24140 439.000
34.25966 429.000
34.27791 417.000
34.29616 417.000
34.31441 397.000
34.33266 399.000
34.35092 415.000
34.36917 367.000
34.38742 387.000
34.40567 383.000
34.42392 396.000
34.44218 398.000
34.46043 398.000
34.47868 386.000
34.49693 399.000
34.51518 394.000
34.53344 413.000
34.55169 439.000
34.56994 432.000
34.58819 427.000
34.60645 445.000
34.62470 450.000
34.64295 497.000
34.66120 448.000
34.67945 508.000
34.69771 514.000
34.71596 534.000
34.73421 466.000
34.75246 501.000
34.77071 515.000
34.78897 573.000
34.80722 579.000
34.82547 580.000
34.84372 614.000
34.86197 618.000
34.88023 633.000
34.89848 632.000
34.91673 710.000
34.93498 676.000
34.95323 728.000
34.97149 696.000
34.98974 820.000
35.00799 820.000
35.02624 836.000
35.04450 813.000
35.06275 883.000
35.08100 793.000
35.09925 766.000
35.11750 767.000
35.13576 715.000
35.15401 710.000
35.17226 661.000
35.19051 770.000
35.20876 743.000
35.22702 745.000
35.24527 762.000
35.26352 756.000
35.28177 822.000
35.30002 842.000
35.31828 891.000
35.33653 797.000
35.35478 738.000
35.37303 640.000
35.39129 649.000
35.40954 625.000
35.42779 562.000
35.44604 538.000
35.46429 471.000
35.48255 427.000
35.50080 457.000
35.51905 447.000
35.53730 466.000
35.55555 424.000
35.57381 475.000
35.59206 401.000
35.61031 446.000
35.62856 424.000
35.64681 477.000
35.66507 411.000
35.68332 455.000
35.70157 427.000
35.71982 382.000
35.73808 401.000
35.75633 482.000
35.77458 411.000
35.79283 487.000
35.81108 491.000
35.82934 510.000
35.84759 471.000
35.86584 495.000
35.88409 530.000
35.90234 561.000
35.92060 566.000
35.93885 593.000
35.95710 543.000
35.97535 594.000
35.99360 536.000
36.01186 650.000
36.03011 611.000
36.04836 654.000
36.06661 669.000
36.08486 674.000
36.10312 780.000
36.12137 777.000
36.13962 830.000
36.15787 854.000
36.17613 839.000
36.19438 886.000
36.21263 877.000
36.23088 834.000
36.24913 874.000
36.26739 884.000
36.28564 893.000
36.30389 828.000
36.32214 779.000
36.34039 796.000
36.35865 722.000
36.37690 700.000
36.39515 613.000
36.41340 655.000
36.43165 651.000
36.44991 597.000
36.46816 593.000
36.48641 501.000
36.50466 504.000
36.52292 488.000
36.54117 479.000
36.55942 484.000
36.57767 522.000
36.59592 493.000
36.61418 475.000
36.63243 442.000
36.65068 509.000
36.66893 502.000
36.68718 482.000
36.70544 492.000
36.72369 464.000
36.74194 490.000
36.76019 466.000
36.77844 469.000
36.79670 479.000
36.81495 466.000
36.83320 491.000
36.85145 418.000
36.86970 412.000
36.88796 393.000
36.90621 380.000
36.92446 445.000
36.94271 390.000
36.96097 415.000
36.97922 421.000
36.99747 412.000
37.01572 430.000
37.03397 460.000
37.05223 439.000
37.07048 471.000
37.08873 496.000
37.10698 497.000
37.12523 537.000
37.14349 500.000
37.16174 550.000
37.17999 565.000
37.19824 548.000
37.21649 585.000
37.23475 590.000
37.25300 631.000
37.27125 609.000
37.28950 625.000
37.30776 585.000
37.32601 528.000
37.34426 590.000
37.36251 520.000
37.38076 516.000
37.39902 508.000
37.41727 527.000
37.43552 464.000
37.45377 506.000
37.47202 424.000
37.49028 442.000
37.50853 420.000
37.52678 387.000
37.54503 436.000
37.56328 423.000
37.58154 407.000
37.59979 417.000
37.61804 402.000
37.63629 404.000
37.65455 372.000
37.67280 394.000
37.69105 422.000
37.70930 398.000
37.72755 428.000
37.74581 419.000
37.76406 422.000
37.78231 445.000
37.80056 461.000
37.81881 443.000
37.83707 508.000
37.85532 517.000
37.87357 538.000
37.89182 551.000
37.91007 525.000
37.92833 535.000
37.94658 538.000
37.96483 585.000
37.98308 585.000
38.00133 596.000
38.01959 561.000
38.03784 555.000
38.05609 511.000
38.07434 524.000
38.09260 485.000
38.11085 446.000
38.12910 471.000
38.14735 426.000
38.16560 482.000
38.18386 495.000
38.20211 504.000
38.22036 564.000
38.23861 549.000
38.25686 567.000
38.27512 581.000
38.29337 599.000
38.31162 592.000
38.32987 613.000
38.34812 652.000
38.36638 576.000
38.38463 648.000
38.40288 637.000
38.42113 642.000
38.43939 579.000
38.45764 574.000
38.47589 633.000
38.49414 590.000
38.51239 582.000
38.53065 558.000
38.54890 511.000
38.56715 518.000
38.58540 481.000
38.60365 492.000
38.62191 497.000
38.64016 486.000
38.65841 460.000
38.67666 507.000
38.69491 483.000
38.71317 485.000
38.73142 465.000
38.74967 500.000
38.76792 516.000
38.78617 517.000
38.80443 550.000
38.82268 554.000
38.84093 531.000
38.85918 529.000
38.87744 592.000
38.89569 610.000
38.91394 611.000
38.93219 651.000
38.95044 639.000
38.96870 702.000
38.98695 723.000
39.00520 775.000
39.02345 759.000
39.04170 733.000
39.05996 750.000
39.07821 658.000
39.09646 656.000
39.11471 648.000
39.13296 652.000
39.15122 594.000
39.16947 582.000
39.18772 542.000
39.20597 504.000
39.22423 491.000
39.24248 509.000
39.26073 481.000
39.27898 514.000
39.29723 468.000
39.31549 493.000
39.33374 444.000
39.35199 440.000
39.37024 490.000
39.38849 500.000
39.40675 435.000
39.42500 472.000
39.44325 514.000
39.46150 516.000
39.47975 506.000
39.49801 518.000
39.51626 573.000
39.53451 545.000
39.55276 517.000
39.57102 564.000
39.58927 546.000
39.60752 537.000
39.62577 560.000
39.64402 469.000
39.66228 455.000
39.68053 510.000
39.69878 466.000
39.71703 437.000
39.73528 460.000
39.75354 488.000
39.77179 461.000
39.79004 461.000
39.80829 465.000
39.82654 499.000
39.84480 484.000
39.86305 513.000
39.88130 504.000
39.89955 510.000
39.91780 503.000
39.93606 504.000
39.95431 496.000
39.97256 498.000
39.99081 528.000
40.00907 520.000
40.02732 495.000
40.04557 530.000
40.06382 506.000
40.08207 556.000
40.10033 522.000
40.11858 545.000
40.13683 506.000
40.15508 533.000
40.17333 517.000
40.19159 464.000
40.20984 525.000
40.22809 519.000
40.24634 577.000
40.26459 543.000
40.28285 576.000
40.30110 543.000
40.31935 559.000
40.33760 587.000
40.35586 632.000
40.37411 599.000
40.39236 663.000
40.41061 673.000
40.42886 740.000
40.44712 738.000
40.46537 753.000
40.48362 791.000
40.50187 783.000
40.52012 812.000
40.53838 818.000
40.55663 832.000
40.57488 772.000
40.59313 824.000
40.61138 789.000
40.62964 727.000
40.64789 711.000
40.66614 692.000
40.68439 660.000
40.70265 628.000
40.72090 604.000
40.73915 553.000
40.75740 547.000
40.77565 480.000
40.79391 549.000
40.81216 487.000
40.83041 512.000
40.84866 478.000
40.86691 481.000
40.88517 462.000
40.90342 455.000
40.92167 485.000
40.93992 470.000
40.95817 469.000
40.97643 455.000
40.99468 458.000
41.01293 438.000
41.03118 429.000
41.04943 461.000
41.06769 467.000
41.08594 498.000
41.10419 472.000
41.12244 490.000
41.14070 477.000
41.15895 454.000
41.17720 481.000
41.19545 502.000
41.21370 478.000
41.23196 485.000
41.25021 492.000
41.26846 467.000
41.28671 502.000
41.30496 468.000
41.32322 480.000
41.34147 482.000
41.35972 484.000
41.37797 462.000
41.39622 431.000
41.41448 402.000
41.43273 397.000
41.45098 374.000
41.46923 419.000
41.48749 431.000
41.50574 387.000
41.52399 403.000
41.54224 377.000
41.56049 409.000
41.57875 390.000
41.59700 377.000
41.61525 422.000
41.63350 368.000
41.65175 388.000
41.67001 444.000
41.68826 411.000
41.70651 462.000
41.72476 453.000
41.74301 467.000
41.76127 427.000
41.77952 425.000
41.79777 442.000
41.81602 434.000
41.83427 425.000
41.85253 426.000
41.87078 430.000
41.88903 419.000
41.90728 404.000
41.92554 370.000
41.94379 393.000
41.96204 363.000
41.98029 398.000
41.99854 364.000
42.01680 371.000
42.03505 366.000
42.05330 374.000
42.07155 421.000
42.08980 375.000
42.10806 384.000
42.12631 381.000
42.14456 395.000
42.16281 381.000
42.18106 400.000
42.19932 410.000
42.21757 399.000
42.23582 414.000
42.25407 403.000
42.27233 390.000
42.29058 420.000
42.30883 395.000
42.32708 436.000
42.34533 429.000
42.36359 419.000
42.38184 445.000
42.40009 419.000
42.41834 472.000
42.43659 468.000
42.45485 505.000
42.47310 468.000
42.49135 502.000
42.50960 506.000
42.52785 464.000
42.54611 506.000
42.56436 502.000
42.58261 491.000
42.60086 465.000
42.61912 496.000
42.63737 479.000
42.65562 491.000
42.67387 488.000
42.69212 462.000
42.71038 429.000
42.72863 474.000
42.74688 438.000
42.76513 411.000
42.78338 395.000
42.80164 413.000
42.81989 455.000
42.83814 405.000
42.85639 402.000
42.87464 452.000
42.89290 402.000
42.91115 424.000
42.92940 409.000
42.94765 451.000
42.96590 408.000
42.98416 438.000
43.00241 445.000
43.02066 479.000
43.03891 489.000
43.05717 467.000
43.07542 516.000
43.09367 525.000
43.11192 505.000
43.13017 548.000
43.14843 524.000
43.16668 514.000
43.18493 506.000
43.20318 561.000
43.22143 555.000
43.23969 483.000
43.25794 493.000
43.27619 464.000
43.29444 504.000
43.31269 495.000
43.33095 496.000
43.34920 471.000
43.36745 493.000
43.38570 428.000
43.40396 506.000
43.42221 499.000
43.44046 466.000
43.45871 465.000
43.47696 491.000
43.49522 500.000
43.51347 492.000
43.53172 488.000
43.54997 493.000
43.56822 464.000
43.58648 489.000
43.60473 461.000
43.62298 527.000
43.64123 528.000
43.65948 520.000
43.67774 508.000
43.69599 485.000
43.71424 482.000
43.73249 486.000
43.75075 518.000
43.76900 516.000
43.78725 514.000
43.80550 522.000
43.82375 488.000
43.84201 451.000
43.86026 530.000
43.87851 461.000
43.89676 443.000
43.91501 480.000
43.93327 461.000
43.95152 453.000
43.96977 423.000
43.98802 484.000
44.00627 462.000
44.02453 442.000
44.04278 437.000
44.06103 438.000
44.07928 458.000
44.09753 463.000
44.11579 499.000
44.13404 422.000
44.15229 453.000
44.17054 418.000
44.18880 498.000
44.20705 533.000
44.22530 504.000
44.24355 507.000
44.26180 531.000
44.28006 530.000
44.29831 538.000
44.31656 548.000
44.33481 565.000
44.35306 646.000
44.37132 593.000
44.38957 596.000
44.40782 557.000
44.42607 599.000
44.44432 609.000
44.46258 621.000
44.48083 659.000
44.49908 662.000
44.51733 607.000
44.53559 634.000
44.55384 611.000
44.57209 601.000
44.59034 578.000
44.60859 579.000
44.62685 548.000
44.64510 604.000
44.66335 622.000
44.68160 609.000
44.69985 568.000
44.71811 587.000
44.73636 540.000
44.75461 548.000
44.77286 552.000
44.79111 559.000
44.80937 549.000
44.82762 544.000
44.84587 505.000
44.86412 514.000
44.88237 492.000
44.90063 494.000
44.91888 493.000
44.93713 513.000
44.95538 480.000
44.97364 457.000
44.99189 505.000
45.01014 460.000
45.02839 481.000
45.04664 443.000
45.06490 445.000
45.08315 474.000
45.10140 505.000
45.11965 467.000
45.13790 479.000
45.15616 527.000
45.17441 518.000
45.19266 481.000
45.21091 433.000
45.22916 465.000
45.24742 448.000
45.26567 495.000
45.28392 479.000
45.30217 503.000
45.32043 527.000
45.33868 472.000
45.35693 486.000
45.37518 528.000
45.39343 493.000
45.41169 498.000
45.42994 464.000
45.44819 512.000
45.46644 537.000
45.48469 511.000
45.50295 501.000
45.52120 514.000
45.53945 495.000
45.55770 507.000
45.57595 543.000
45.59421 462.000
45.61246 496.000
45.63071 481.000
45.64896 484.000
45.66722 448.000
45.68547 426.000
45.70372 480.000
45.72197 439.000
45.74022 469.000
45.75848 492.000
45.77673 407.000
45.79498 484.000
45.81323 470.000
45.83148 458.000
45.84974 441.000
45.86799 422.000
45.88624 390.000
45.90449 477.000
45.92274 415.000
45.94100 477.000
45.95925 430.000
45.97750 406.000
45.99575 431.000
46.01400 446.000
46.03226 442.000
46.05051 448.000
46.06876 426.000
46.08701 449.000
46.10527 480.000
46.12352 477.000
46.14177 473.000
46.16002 535.000
46.17827 487.000
46.19653 541.000
46.21478 504.000
46.23303 494.000
46.25128 464.000
46.26953 496.000
46.28779 516.000
46.30604 478.000
46.32429 495.000
46.34254 543.000
46.36079 520.000
46.37905 463.000
46.39730 521.000
46.41555 506.000
46.43380 536.000
46.45206 538.000
46.47031 498.000
46.48856 581.000
46.50681 521.000
46.52506 549.000
46.54332 537.000
46.56157 571.000
46.57982 582.000
46.59807 544.000
46.61632 567.000
46.63458 527.000
46.65283 517.000
46.67108 494.000
46.68933 492.000
46.70758 495.000
46.72584 513.000
46.74409 475.000
46.76234 472.000
46.78059 485.000
46.79884 477.000
46.81710 430.000
46.83535 471.000
46.85360 438.000
46.87185 445.000
46.89011 441.000
46.90836 440.000
46.92661 458.000
46.94486 470.000
46.96311 431.000
46.98137 469.000
46.99962 482.000
47.01787 429.000
47.03612 462.000
47.05437 482.000
47.07263 414.000
47.09088 469.000
47.10913 436.000
47.12738 470.000
47.14563 419.000
47.16389 424.000
47.18214 430.000
47.20039 457.000
47.21864 410.000
47.23690 416.000
47.25515 435.000
47.27340 441.000
47.29165 433.000
47.30990 459.000
47.32816 470.000
47.34641 384.000
47.36466 460.000
47.38291 433.000
47.40116 481.000
47.41942 472.000
47.43767 464.000
47.45592 461.000
47.47417 485.000
47.49242 461.000
47.51068 468.000
47.52893 450.000
47.54718 463.000
47.56543 432.000
47.58369 416.000
47.60194 450.000
47.62019 472.000
47.63844 483.000
47.65669 470.000
47.67495 437.000
47.69320 451.000
47.71145 461.000
47.72970 408.000
47.74795 461.000
47.76621 453.000
47.78446 419.000
47.80271 462.000
47.82096 424.000
47.83921 455.000
47.85747 482.000
47.87572 442.000
47.89397 468.000
47.91222 486.000
47.93047 488.000
47.94873 473.000
47.96698 492.000
47.98523 488.000
48.00348 473.000
48.02174 444.000
48.03999 491.000
48.05824 471.000
48.07649 411.000
48.09474 450.000
48.11300 428.000
48.13125 446.000
48.14950 467.000
48.16775 446.000
48.18600 454.000
48.20426 418.000
48.22251 464.000
48.24076 442.000
48.25901 437.000
48.27726 467.000
48.29552 437.000
48.31377 417.000
48.33202 459.000
48.35027 452.000
48.36853 451.000
48.38678 478.000
48.40503 458.000
48.42328 434.000
48.44153 444.000
48.45979 435.000
48.47804 459.000
48.49629 411.000
48.51454 384.000
48.53279 442.000
48.55105 428.000
48.56930 378.000
48.58755 424.000
48.60580 424.000
48.62405 431.000
48.64231 429.000
48.66056 415.000
48.67881 414.000
48.69706 400.000
48.71532 374.000
48.73357 387.000
48.75182 363.000
48.77007 393.000
48.78832 430.000
48.80658 437.000
48.82483 389.000
48.84308 457.000
48.86133 475.000
48.87958 423.000
48.89784 409.000
48.91609 443.000
48.93434 399.000
48.95259 471.000
48.97084 459.000
48.98910 435.000
49.00735 495.000
49.02560 421.000
49.04385 460.000
49.06210 434.000
49.08036 437.000
49.09861 465.000
49.11686 431.000
49.13511 450.000
49.15337 455.000
49.17162 454.000
49.18987 430.000
49.20812 461.000
49.22637 429.000
49.24463 417.000
49.26288 415.000
49.28113 459.000
49.29938 388.000
49.31763 422.000
49.33589 408.000
49.35414 421.000
49.37239 420.000
49.39064 398.000
49.40889 408.000
49.42715 386.000
49.44540 379.000
49.46365 425.000
49.48190 417.000
49.50016 386.000
49.51841 395.000
49.53666 385.000
49.55491 364.000
49.57316 402.000
49.59142 353.000
49.60967 397.000
49.62792 392.000
49.64617 389.000
49.66442 375.000
49.68268 407.000
49.70093 378.000
49.71918 411.000
49.73743 379.000
49.75568 358.000
49.77394 433.000
49.79219 387.000
49.81044 421.000
49.82869 401.000
49.84694 398.000
49.86520 393.000
49.88345 404.000
49.90170 415.000
49.91995 400.000
49.93821 434.000
49.95646 373.000
49.97471 402.000
49.99296 393.000
50.01121 383.000
50.02947 365.000
50.04772 362.000
50.06597 364.000
50.08422 366.000
50.10247 391.000
50.12073 397.000
50.13898 377.000
50.15723 387.000
50.17548 383.000
50.19373 373.000
50.21199 390.000
50.23024 344.000
50.24849 378.000
50.26674 386.000
50.28500 336.000
50.30325 387.000
50.32150 370.000
50.33975 369.000
50.35800 380.000
50.37626 369.000
50.39451 338.000
50.41276 350.000
50.43101 384.000
50.44926 375.000
50.46752 350.000
50.48577 377.000
50.50402 406.000
50.52227 377.000
50.54052 402.000
50.55878 374.000
50.57703 355.000
50.59528 392.000
50.61353 426.000
50.63179 408.000
50.65004 366.000
50.66829 449.000
50.68654 435.000
50.70479 471.000
50.72305 424.000
50.74130 436.000
50.75955 422.000
50.77780 438.000
50.79605 417.000
50.81431 447.000
50.83256 449.000
50.85081 400.000
50.86906 456.000
50.88731 395.000
50.90557 430.000
50.92382 373.000
50.94207 368.000
50.96032 365.000
50.97857 375.000
50.99683 347.000
51.01508 360.000
51.03333 371.000
51.05158 342.000
51.06984 345.000
51.08809 350.000
51.10634 353.000
51.12459 365.000
51.14284 350.000
51.16110 324.000
51.17935 329.000
51.19760 371.000
51.21585 342.000
51.23410 341.000
51.25236 306.000
51.27061 401.000
51.28886 355.000
51.30711 334.000
51.32536 327.000
51.34362 352.000
51.36187 350.000
51.38012 363.000
51.39837 368.000
51.41663 388.000
51.43488 387.000
51.45313 384.000
51.47138 380.000
51.48963 395.000
51.50789 372.000
51.52614 361.000
51.54439 368.000
51.56264 394.000
51.58089 369.000
51.59915 384.000
51.61740 442.000
51.63565 392.000
51.65390 420.000
51.67215 386.000
51.69041 388.000
51.70866 378.000
51.72691 393.000
51.74516 384.000
51.76341 372.000
51.78167 441.000
51.79992 397.000
51.81817 434.000
51.83642 406.000
51.85468 395.000
51.87293 432.000
51.89118 436.000
51.90943 389.000
51.92768 373.000
51.94594 382.000
51.96419 409.000
51.98244 401.000
52.00069 445.000
52.01894 384.000
52.03720 374.000
52.05545 364.000
52.07370 395.000
52.09195 382.000
52.11020 418.000
52.12846 421.000
52.14671 398.000
52.16496 392.000
52.18321 387.000
52.20147 425.000
52.21972 363.000
52.23797 433.000
52.25622 423.000
52.27447 412.000
52.29273 411.000
52.31098 426.000
52.32923 469.000
52.34748 433.000
52.36573 397.000
52.38399 431.000
52.40224 414.000
52.42049 472.000
52.43874 447.000
52.45699 425.000
52.47525 396.000
52.49350 447.000
52.51175 424.000
52.53000 417.000
52.54826 406.000
52.56651 427.000
52.58476 389.000
52.60301 426.000
52.62126 373.000
52.63952 409.000
52.65777 412.000
52.67602 413.000
52.69427 423.000
52.71252 413.000
52.73078 379.000
52.74903 375.000
52.76728 406.000
52.78553 445.000
52.80378 378.000
52.82204 363.000
52.84029 379.000
52.85854 408.000
52.87679 401.000
52.89504 411.000
52.91330 421.000
52.93155 416.000
52.94980 395.000
52.96805 405.000
52.98631 396.000
53.00456 400.000
53.02281 397.000
53.04106 381.000
53.05931 354.000
53.07757 381.000
53.09582 381.000
53.11407 396.000
53.13232 414.000
53.15057 341.000
53.16883 358.000
53.18708 357.000
53.20533 372.000
53.22358 369.000
53.24183 379.000
53.26009 351.000
53.27834 354.000
53.29659 367.000
53.31484 384.000
53.33310 402.000
53.35135 356.000
53.36960 408.000
53.38785 377.000
53.40610 397.000
53.42436 374.000
53.44261 390.000
53.46086 352.000
53.47911 427.000
53.49736 377.000
53.51562 372.000
53.53387 378.000
53.55212 378.000
53.57037 343.000
53.58862 336.000
53.60688 345.000
53.62513 358.000
53.64338 340.000
53.66163 362.000
53.67989 375.000
53.69814 388.000
53.71639 397.000
53.73464 387.000
53.75289 388.000
53.77115 345.000
53.78940 368.000
53.80765 355.000
53.82590 388.000
53.84415 405.000
53.86241 392.000
53.88066 370.000
53.89891 366.000
53.91716 363.000
53.93541 347.000
53.95367 346.000
53.97192 340.000
53.99017 386.000
54.00842 347.000
54.02667 377.000
54.04493 361.000
54.06318 356.000
54.08143 335.000
54.09968 337.000
54.11794 341.000
54.13619 377.000
54.15444 349.000
54.17269 321.000
54.19094 327.000
54.20920 331.000
54.22745 360.000
54.24570 362.000
54.26395 350.000
54.28220 378.000
54.30046 350.000
54.31871 340.000
54.33696 362.000
54.35521 391.000
54.37346 392.000
54.39172 373.000
54.40997 383.000
54.42822 376.000
54.44647 350.000
54.46473 389.000
54.48298 362.000
54.50123 394.000
54.51948 381.000
54.53773 380.000
54.55599 383.000
54.57424 359.000
54.59249 369.000
54.61074 401.000
54.62899 362.000
54.64725 363.000
54.66550 348.000
54.68375 414.000
54.70200 354.000
54.72025 392.000
54.73851 364.000
54.75676 395.000
54.77501 325.000
54.79326 328.000
54.81151 366.000
54.82977 372.000
54.84802 363.000
54.86627 411.000
54.88452 351.000
54.90278 371.000
54.92103 357.000
54.93928 391.000
54.95753 363.000
54.97578 390.000
54.99404 353.000
55.01229 380.000
55.03054 409.000
55.04879 361.000
55.06704 347.000
55.08530 342.000
55.10355 364.000
55.12180 346.000
55.14005 351.000
55.15830 341.000
55.17656 373.000
55.19481 352.000
55.21306 330.000
55.23131 350.000
55.24957 352.000
55.26782 336.000
55.28607 361.000
55.30432 349.000
55.32257 369.000
55.34083 348.000
55.35908 335.000
55.37733 314.000
55.39558 350.000
55.41383 331.000
55.43209 365.000
55.45034 337.000
55.46859 335.000
55.48684 333.000
55.50509 338.000
55.52335 326.000
55.54160 359.000
55.55985 339.000
55.57810 334.000
55.59636 287.000
55.61461 319.000
55.63286 319.000
55.65111 328.000
55.66936 358.000
55.68762 342.000
55.70587 317.000
55.72412 313.000
55.74237 319.000
55.76062 367.000
55.77888 304.000
55.79713 292.000
55.81538 324.000
55.83363 311.000
55.85188 296.000
55.87014 283.000
55.88839 315.000
55.90664 315.000
55.92489 308.000
55.94314 334.000
55.96140 295.000
55.97965 330.000
55.99790 329.000
56.01615 335.000
56.03441 297.000
56.05266 327.000
56.07091 314.000
56.08916 352.000
56.10741 332.000
56.12567 304.000
56.14392 318.000
56.16217 316.000
56.18042 339.000
56.19867 313.000
56.21693 354.000
56.23518 324.000
56.25343 303.000
56.27168 338.000
56.28993 310.000
56.30819 323.000
56.32644 293.000
56.34469 311.000
56.36294 331.000
56.38120 310.000
56.39945 344.000
56.41770 344.000
56.43595 332.000
56.45420 304.000
56.47246 334.000
56.49071 333.000
56.50896 350.000
56.52721 376.000
56.54546 346.000
56.56372 362.000
56.58197 327.000
56.60022 368.000
56.61847 362.000
56.63672 331.000
56.65498 327.000
56.67323 316.000
56.69148 365.000
56.70973 344.000
56.72799 338.000
56.74624 357.000
56.76449 361.000
56.78274 319.000
56.80099 334.000
56.81925 307.000
56.83750 334.000
56.85575 359.000
56.87400 299.000
56.89225 338.000
56.91051 330.000
56.92876 297.000
56.94701 331.000
56.96526 333.000
56.98351 327.000
57.00177 330.000
57.02002 334.000
57.03827 337.000
57.05652 332.000
57.07477 312.000
57.09303 345.000
57.11128 335.000
57.12953 369.000
57.14778 333.000
57.16604 320.000
57.18429 317.000
57.20254 332.000
57.22079 344.000
57.23904 319.000
57.25730 328.000
57.27555 283.000
57.29380 338.000
57.31205 304.000
57.33030 325.000
57.34856 322.000
57.36681 294.000
57.38506 319.000
57.40331 367.000
57.42156 322.000
57.43982 288.000
57.45807 308.000
57.47632 286.000
57.49457 299.000
57.51283 296.000
57.53108 318.000
57.54933 297.000
57.56758 315.000
57.58583 300.000
57.60409 281.000
57.62234 321.000
57.64059 335.000
57.65884 331.000
57.67709 315.000
57.69535 321.000
57.71360 296.000
57.73185 275.000
57.75010 340.000
57.76835 298.000
57.78661 322.000
57.80486 292.000
57.82311 288.000
57.84136 289.000
57.85961 295.000
57.87787 289.000
57.89612 309.000
57.91437 271.000
57.93262 305.000
57.95088 313.000
57.96913 298.000
57.98738 329.000
58.00563 302.000
58.02388 307.000
58.04214 312.000
58.06039 281.000
58.07864 301.000
58.09689 290.000
58.11514 306.000
58.13340 288.000
58.15165 327.000
58.16990 310.000
58.18815 338.000
58.20640 301.000
58.22466 301.000
58.24291 294.000
58.26116 314.000
58.27941 337.000
58.29767 306.000
58.31592 322.000
58.33417 330.000
58.35242 300.000
58.37067 306.000
58.38893 305.000
58.40718 328.000
58.42543 308.000
58.44368 318.000
58.46193 331.000
58.48019 313.000
58.49844 284.000
58.51669 321.000
58.53494 327.000
58.55319 318.000
58.57145 308.000
58.58970 305.000
58.60795 295.000
58.62620 291.000
58.64446 309.000
58.66271 306.000
58.68096 296.000
58.69921 289.000
58.71746 290.000
58.73572 318.000
58.75397 275.000
58.77222 299.000
58.79047 302.000
58.80872 297.000
58.82698 270.000
58.84523 298.000
58.86348 315.000
58.88173 327.000
58.89998 296.000
58.91824 297.000
58.93649 311.000
58.95474 288.000
58.97299 304.000
58.99124 297.000
59.00950 325.000
59.02775 313.000
59.04600 280.000
59.06425 319.000
59.08251 329.000
59.10076 301.000
59.11901 307.000
59.13726 315.000
59.15551 311.000
59.17377 277.000
59.19202 356.000
59.21027 341.000
59.22852 313.000
59.24677 338.000
59.26503 372.000
59.28328 333.000
59.30153 332.000
59.31978 298.000
59.33803 340.000
59.35629 291.000
59.37454 340.000
59.39279 334.000
59.41104 290.000
59.42930 322.000
59.44755 309.000
59.46580 305.000
59.48405 308.000
59.50230 306.000
59.52056 314.000
59.53881 332.000
59.55706 317.000
59.57531 294.000
59.59356 295.000
59.61182 293.000
59.63007 298.000
59.64832 276.000
59.66657 290.000
59.68482 301.000
59.70308 300.000
59.72133 274.000
59.73958 321.000
59.75783 294.000
59.77608 282.000
59.79434 270.000
59.81259 294.000
59.83084 285.000
59.84909 280.000
59.86735 305.000
59.88560 286.000
59.90385 293.000
59.92210 313.000
59.94035 298.000
59.95861 291.000
59.97686 275.000
59.99511 294.000
60.01336 282.000
60.03161 283.000
60.04987 315.000
60.06812 307.000
60.08637 298.000
60.10462 291.000
60.12287 286.000
60.14113 282.000
60.15938 298.000
60.17763 302.000
60.19588 289.000
60.21414 306.000
60.23239 326.000
60.25064 324.000
60.26889 310.000
60.28714 305.000
60.30540 294.000
60.32365 299.000
60.34190 344.000
60.36015 299.000
60.37840 311.000
60.39666 309.000
60.41491 311.000
60.43316 311.000
60.45141 285.000
60.46966 318.000
60.48792 308.000
60.50617 292.000
60.52442 317.000
60.54267 286.000
60.56093 300.000
60.57918 293.000
60.59743 316.000
60.61568 314.000
60.63393 277.000
60.65219 334.000
60.67044 250.000
60.68869 293.000
60.70694 321.000
60.72519 287.000
60.74345 253.000
60.76170 282.000
60.77995 309.000
60.79820 279.000
60.81645 262.000
60.83471 263.000
60.85296 273.000
60.87121 310.000
60.88946 256.000
60.90771 251.000
60.92597 274.000
60.94422 318.000
60.96247 253.000
60.98072 276.000
60.99898 292.000
