5.00155 866.000
5.02183 855.000
5.04211 910.000
5.06239 817.000
5.08267 852.000
5.10295 856.000
5.12323 794.000
5.14351 829.000
5.16379 777.000
5.18407 758.000
5.20435 775.000
5.22463 824.000
5.24491 805.000
5.26519 776.000
5.28547 774.000
5.30575 719.000
5.32603 729.000
5.34631 726.000
5.36659 699.000
5.38687 689.000
5.40715 716.000
5.42743 719.000
5.44771 717.000
5.46799 654.000
5.48827 673.000
5.50855 658.000
5.52883 655.000
5.54911 678.000
5.56939 675.000
5.58967 679.000
5.60995 687.000
5.63023 666.000
5.65051 646.000
5.67079 646.000
5.69107 643.000
5.71135 633.000
5.73163 621.000
5.75191 610.000
5.77219 614.000
5.79247 606.000
5.81275 562.000
5.83303 611.000
5.85331 605.000
5.87359 559.000
5.89387 653.000
5.91415 540.000
5.93443 579.000
5.95471 563.000
5.97499 598.000
5.99527 570.000
6.01555 573.000
6.03583 497.000
6.05611 531.000
6.07639 515.000
6.09667 559.000
6.11695 583.000
6.13723 560.000
6.15751 549.000
6.17779 531.000
6.19807 582.000
6.21835 583.000
6.23863 576.000
6.25891 625.000
6.27919 629.000
6.29947 659.000
6.31975 671.000
6.34003 741.000
6.36031 790.000
6.38059 818.000
6.40087 898.000
6.42115 922.000
6.44143 881.000
6.46171 874.000
6.48199 850.000
6.50227 724.000
6.52255 731.000
6.54283 608.000
6.56311 556.000
6.58339 610.000
6.60367 506.000
6.62395 527.000
6.64423 527.000
6.66451 510.000
6.68479 497.000
6.70507 520.000
6.72536 500.000
6.74564 549.000
6.76592 565.000
6.78620 563.000
6.80648 594.000
6.82676 595.000
6.84704 593.000
6.86732 601.000
6.88760 582.000
6.90788 535.000
6.92816 510.000
6.94844 500.000
6.96872 470.000
6.98900 481.000
7.00928 460.000
7.02956 490.000
7.04984 471.000
7.07012 454.000
7.09040 464.000
7.11068 440.000
7.13096 458.000
7.15124 446.000
7.17152 467.000
7.19180 399.000
7.21208 399.000
7.23236 440.000
7.25264 459.000
7.27292 438.000
7.29320 422.000
7.31348 400.000
7.33376 395.000
7.35404 427.000
7.37432 457.000
7.39460 416.000
7.41488 415.000
7.43516 436.000
7.45544 410.000
7.47572 436.000
7.49600 427.000
7.51628 447.000
7.53656 422.000
7.55684 410.000
7.57712 462.000
7.59740 426.000
7.61768 425.000
7.63796 421.000
7.65824 409.000
7.67852 463.000
7.69880 419.000
7.71908 469.000
7.73936 434.000
7.75964 468.000
7.77992 472.000
7.80020 429.000
7.82048 450.000
7.84076 431.000
7.86104 447.000
7.88132 459.000
7.90160 430.000
7.92188 449.000
7.94216 442.000
7.96244 411.000
7.98272 424.000
8.00300 452.000
8.02328 464.000
8.04356 473.000
8.06384 464.000
8.08412 460.000
8.10440 492.000
8.12468 427.000
8.14496 462.000
8.16524 492.000
8.18552 521.000
8.20580 480.000
8.22608 523.000
8.24636 558.000
8.26664 521.000
8.28692 553.000
8.30720 621.000
8.32748 626.000
8.34776 672.000
8.36804 777.000
8.38832 760.000
8.40860 902.000
8.42888 1005.000
8.44916 1103.000
8.46944 1173.000
8.48972 1371.000
8.51000 1621.000
8.53028 2023.000
8.55056 2456.000
8.57084 2972.000
8.59112 3635.000
8.61140 4208.000
8.63168 4492.000
8.65197 4674.000
8.67225 4614.000
8.69253 4030.000
8.71281 3607.000
8.73309 2852.000
8.75337 2225.000
8.77365 1750.000
8.79393 1323.000
8.81421 1168.000
8.83449 962.000
8.85477 859.000
8.87505 801.000
8.89533 749.000
8.91561 714.000
8.93589 620.000
8.95617 628.000
8.97645 629.000
8.99673 614.000
9.01701 603.000
9.03729 619.000
9.05757 565.000
9.07785 593.000
9.09813 561.000
9.11841 587.000
9.13869 561.000
9.15897 569.000
9.17925 564.000
9.19953 625.000
9.21981 629.000
9.24009 697.000
9.26037 664.000
9.28065 693.000
9.30093 833.000
9.32121 815.000
9.34149 1029.000
9.36177 1125.000
9.38205 1388.000
9.40233 1717.000
9.42261 1938.000
9.44289 2317.000
9.46317 2619.000
9.48345 2803.000
9.50373 2931.000
9.52401 2749.000
9.54429 2687.000
9.56457 2161.000
9.58485 1837.000
9.60513 1572.000
9.62541 1364.000
9.64569 1176.000
9.66597 1084.000
9.68625 1115.000
9.70653 1192.000
9.72681 1329.000
9.74709 1581.000
9.76737 1989.000
9.78765 2351.000
9.80793 2784.000
9.82821 3263.000
9.84849 3606.000
9.86877 3884.000
9.88905 3879.000
9.90933 3695.000
9.92961 3140.000
9.94989 2507.000
9.97017 1909.000
9.99045 1465.000
10.01073 1222.000
10.03101 1086.000
10.05129 866.000
10.07157 794.000
10.09185 747.000
10.11213 731.000
10.13241 602.000
10.15269 610.000
10.17297 617.000
10.19325 568.000
10.21353 555.000
10.23381 509.000
10.25409 529.000
10.27437 483.000
10.29465 494.000
10.31493 524.000
10.33521 499.000
10.35549 501.000
10.37577 529.000
10.39605 588.000
10.41633 574.000
10.43661 578.000
10.45689 551.000
10.47717 600.000
10.49745 517.000
10.51773 559.000
10.53801 540.000
10.55830 501.000
10.57858 572.000
10.59886 539.000
10.61914 516.000
10.63942 517.000
10.65970 530.000
10.67998 506.000
10.70026 632.000
10.72054 588.000
10.74082 636.000
10.76110 644.000
10.78138 719.000
10.80166 775.000
10.82194 965.000
10.84222 1105.000
10.86250 1388.000
10.88278 1611.000
10.90306 1974.000
10.92334 2234.000
10.94362 2444.000
10.96390 2599.000
10.98418 2472.000
11.00446 2211.000
11.02474 1950.000
11.04502 1463.000
11.06530 1208.000
11.08558 957.000
11.10586 755.000
11.12614 699.000
11.14642 613.000
11.16670 579.000
11.18698 549.000
11.20726 557.000
11.22754 507.000
11.24782 457.000
11.26810 492.000
11.28838 501.000
11.30866 417.000
11.32894 416.000
11.34922 532.000
11.36950 435.000
11.38978 421.000
11.41006 396.000
11.43034 427.000
11.45062 439.000
11.47090 414.000
11.49118 473.000
11.51146 439.000
11.53174 414.000
11.55202 421.000
11.57230 392.000
11.59258 407.000
11.61286 405.000
11.63314 397.000
11.65342 417.000
11.67370 361.000
11.69398 382.000
11.71426 421.000
11.73454 363.000
11.75482 376.000
11.77510 405.000
11.79538 398.000
11.81566 427.000
11.83594 372.000
11.85622 386.000
11.87650 400.000
11.89678 412.000
11.91706 387.000
11.93734 443.000
11.95762 408.000
11.97790 372.000
11.99818 393.000
12.01846 380.000
12.03874 430.000
12.05902 425.000
12.07930 397.000
12.09958 381.000
12.11986 409.000
12.14014 384.000
12.16042 427.000
12.18070 423.000
12.20098 425.000
12.22126 396.000
12.24154 436.000
12.26182 432.000
12.28210 433.000
12.30238 455.000
12.32266 433.000
12.34294 485.000
12.36322 456.000
12.38350 473.000
12.40378 495.000
12.42406 513.000
12.44434 489.000
12.46463 415.000
12.48491 463.000
12.50519 438.000
12.52547 424.000
12.54575 405.000
12.56603 386.000
12.58631 412.000
12.60659 408.000
12.62687 417.000
12.64715 419.000
12.66743 433.000
12.68771 412.000
12.70799 467.000
12.72827 440.000
12.74855 420.000
12.76883 418.000
12.78911 391.000
12.80939 430.000
12.82967 446.000
12.84995 441.000
12.87023 441.000
12.89051 493.000
12.91079 487.000
12.93107 497.000
12.95135 562.000
12.97163 601.000
12.99191 639.000
13.01219 613.000
13.03247 606.000
13.05275 635.000
13.07303 643.000
13.09331 613.000
13.11359 623.000
13.13387 606.000
13.15415 681.000
13.17443 697.000
13.19471 836.000
13.21499 860.000
13.23527 879.000
13.25555 1014.000
13.27583 941.000
13.29611 1020.000
13.31639 963.000
13.33667 877.000
13.35695 839.000
13.37723 685.000
13.39751 685.000
13.41779 641.000
13.43807 649.000
13.45835 642.000
13.47863 652.000
13.49891 710.000
13.51919 815.000
13.53947 812.000
13.55975 983.000
13.58003 1072.000
13.60031 1295.000
13.62059 1444.000
13.64087 1724.000
13.66115 2117.000
13.68143 2306.000
13.70171 2581.000
13.72199 2731.000
13.74227 2662.000
13.76255 2717.000
13.78283 2560.000
13.80311 2435.000
13.82339 2295.000
13.84367 2039.000
13.86395 1790.000
13.88423 1513.000
13.90451 1284.000
13.92479 1058.000
13.94507 843.000
13.96535 745.000
13.98563 664.000
14.00591 620.000
14.02619 550.000
14.04647 614.000
14.06675 536.000
14.08703 566.000
14.10731 502.000
14.12759 498.000
14.14787 482.000
14.16815 542.000
14.18843 512.000
14.20871 482.000
14.22899 415.000
14.24927 445.000
14.26955 440.000
14.28983 468.000
14.31011 524.000
14.33039 469.000
14.35067 452.000
14.37096 498.000
14.39124 486.000
14.41152 480.000
14.43180 459.000
14.45208 441.000
14.47236 442.000
14.49264 475.000
14.51292 477.000
14.53320 507.000
14.55348 481.000
14.57376 441.000
14.59404 457.000
14.61432 479.000
14.63460 517.000
14.65488 545.000
14.67516 569.000
14.69544 553.000
14.71572 528.000
14.73600 564.000
14.75628 645.000
14.77656 645.000
14.79684 708.000
14.81712 694.000
14.83740 742.000
14.85768 775.000
14.87796 801.000
14.89824 861.000
14.91852 861.000
14.93880 831.000
14.95908 817.000
14.97936 730.000
14.99964 613.000
15.01992 591.000
15.04020 565.000
15.06048 545.000
15.08076 496.000
15.10104 502.000
15.12132 508.000
15.14160 508.000
15.16188 489.000
15.18216 522.000
15.20244 540.000
15.22272 510.000
15.24300 490.000
15.26328 526.000
15.28356 529.000
15.30384 526.000
15.32412 510.000
15.34440 536.000
15.36468 547.000
15.38496 580.000
15.40524 580.000
15.42552 627.000
15.44580 568.000
15.46608 613.000
15.48636 666.000
15.50664 703.000
15.52692 781.000
15.54720 828.000
15.56748 907.000
15.58776 1047.000
15.60804 1081.000
15.62832 1090.000
15.64860 1083.000
15.66888 1099.000
15.68916 1105.000
15.70944 1084.000
15.72972 991.000
15.75000 1026.000
15.77028 963.000
15.79056 946.000
15.81084 831.000
15.83112 898.000
15.85140 995.000
15.87168 949.000
15.89196 1088.000
15.91224 1116.000
15.93252 1327.000
15.95280 1605.000
15.97308 1731.000
15.99336 2170.000
16.01364 2481.000
16.03392 2855.000
16.05420 3182.000
16.07448 3446.000
16.09476 3467.000
16.11504 3319.000
16.13532 3018.000
16.15560 2489.000
16.17588 2110.000
16.19616 1821.000
16.21644 1502.000
16.23672 1335.000
16.25700 1218.000
16.27729 1161.000
16.29757 1174.000
16.31785 1239.000
16.33813 1264.000
16.35841 1324.000
16.37869 1407.000
16.39897 1479.000
16.41925 1580.000
16.43953 1642.000
16.45981 1647.000
16.48009 1614.000
16.50037 1635.000
16.52065 1574.000
16.54093 1701.000
16.56121 1760.000
16.58149 1943.000
16.60177 2206.000
16.62205 2529.000
16.64233 2833.000
16.66261 3047.000
16.68289 2954.000
16.70317 2864.000
16.72345 2786.000
16.74373 2563.000
16.76401 2051.000
16.78429 1757.000
16.80457 1497.000
16.82485 1305.000
16.84513 1166.000
16.86541 1054.000
16.88569 1032.000
16.90597 953.000
16.92625 924.000
16.94653 926.000
16.96681 908.000
16.98709 916.000
17.00737 981.000
17.02765 997.000
17.04793 1020.000
17.06821 1019.000
17.08849 1139.000
17.10877 1211.000
17.12905 1286.000
17.14933 1517.000
17.16961 1507.000
17.18989 1812.000
17.21017 2047.000
17.23045 2332.000
17.25073 2685.000
17.27101 3188.000
17.29129 3762.000
17.31157 4096.000
17.33185 4474.000
17.35213 4492.000
17.37241 4677.000
17.39269 4300.000
17.41297 3752.000
17.43325 3310.000
17.45353 2833.000
17.47381 2339.000
17.49409 1990.000
17.51437 1870.000
17.53465 1721.000
17.55493 1739.000
17.57521 1933.000
17.59549 2012.000
17.61577 2322.000
17.63605 2649.000
17.65633 3373.000
17.67661 3903.000
17.69689 4943.000
17.71717 6038.000
17.73745 7039.000
17.75773 8008.000
17.77801 8521.000
17.79829 8665.000
17.81857 7857.000
17.83885 6648.000
17.85913 5444.000
17.87941 4253.000
17.89969 3378.000
17.91997 2780.000
17.94025 2247.000
17.96053 1997.000
17.98081 1819.000
18.00109 1909.000
18.02137 1790.000
18.04165 1749.000
18.06193 1684.000
18.08221 1791.000
18.10249 1912.000
18.12277 1941.000
18.14305 2028.000
18.16333 2196.000
18.18362 2424.000
18.20390 2920.000
18.22418 3278.000
18.24446 3987.000
18.26474 4543.000
18.28502 5193.000
18.30530 5873.000
18.32558 6733.000
18.34586 7188.000
18.36614 7636.000
18.38642 7712.000
18.40670 7557.000
18.42698 7197.000
18.44726 6457.000
18.46754 5385.000
18.48782 4335.000
18.50810 3596.000
18.52838 2842.000
18.54866 2391.000
18.56894 2065.000
18.58922 1702.000
18.60950 1691.000
18.62978 1536.000
18.65006 1480.000
18.67034 1505.000
18.69062 1556.000
18.71090 1546.000
18.73118 1619.000
18.75146 1712.000
18.77174 1880.000
18.79202 2064.000
18.81230 2277.000
18.83258 2553.000
18.85286 3156.000
18.87314 3403.000
18.89342 3697.000
18.91370 3727.000
18.93398 3746.000
18.95426 3542.000
18.97454 3387.000
18.99482 3128.000
19.01510 2738.000
19.03538 2395.000
19.05566 2197.000
19.07594 1971.000
19.09622 1789.000
19.11650 1643.000
19.13678 1508.000
19.15706 1441.000
19.17734 1328.000
19.19762 1355.000
19.21790 1318.000
19.23818 1367.000
19.25846 1527.000
19.27874 1543.000
19.29902 1657.000
19.31930 1621.000
19.33958 1724.000
19.35986 1878.000
19.38014 2074.000
19.40042 2201.000
19.42070 2394.000
19.44098 2629.000
19.46126 2815.000
19.48154 3053.000
19.50182 3061.000
19.52210 3128.000
19.54238 3049.000
19.56266 2885.000
19.58294 2776.000
19.60322 2466.000
19.62350 2412.000
19.64378 2401.000
19.66406 2493.000
19.68434 2511.000
19.70462 2849.000
19.72490 3189.000
19.74518 3344.000
19.76546 3795.000
19.78574 3865.000
19.80602 3871.000
19.82630 3841.000
19.84658 3737.000
19.86686 3534.000
19.88714 3393.000
19.90742 3225.000
19.92770 3457.000
19.94798 3582.000
19.96826 3813.000
19.98854 4407.000
20.00882 4696.000
20.02910 4915.000
20.04938 4906.000
20.06966 4971.000
20.08995 4578.000
20.11023 4251.000
20.13051 3755.000
20.15079 3319.000
20.17107 2941.000
20.19135 2753.000
20.21163 2448.000
20.23191 2399.000
20.25219 2330.000
20.27247 2315.000
20.29275 2457.000
20.31303 2460.000
20.33331 2566.000
20.35359 2686.000
20.37387 2534.000
20.39415 2694.000
20.41443 2688.000
20.43471 2397.000
20.45499 2407.000
20.47527 2401.000
20.49555 2601.000
20.51583 2859.000
20.53611 3128.000
20.55639 3434.000
20.57667 3963.000
20.59695 4410.000
20.61723 4731.000
20.63751 5021.000
20.65779 4812.000
20.67807 4760.000
20.69835 4230.000
20.71863 3483.000
20.73891 2961.000
20.75919 2465.000
20.77947 2196.000
20.79975 1821.000
20.82003 1608.000
20.84031 1580.000
20.86059 1536.000
20.88087 1526.000
20.90115 1528.000
20.92143 1466.000
20.94171 1471.000
20.96199 1509.000
20.98227 1406.000
21.00255 1330.000
21.02283 1369.000
21.04311 1346.000
21.06339 1236.000
21.08367 1205.000
21.10395 1307.000
21.12423 1233.000
21.14451 1334.000
21.16479 1335.000
21.18507 1466.000
21.20535 1493.000
21.22563 1597.000
21.24591 1676.000
21.26619 1800.000
21.28647 1847.000
21.30675 2043.000
21.32703 2134.000
21.34731 2197.000
21.36759 2448.000
21.38787 2644.000
21.40815 2995.000
21.42843 3206.000
21.44871 3471.000
21.46899 3788.000
21.48927 3728.000
21.50955 3960.000
21.52983 3950.000
21.55011 3953.000
21.57039 4144.000
21.59067 4447.000
21.61095 4742.000
21.63123 5226.000
21.65151 5227.000
21.67179 5751.000
21.69207 5711.000
21.71235 5646.000
21.73263 5149.000
21.75291 4675.000
21.77319 4051.000
21.79347 3342.000
21.81375 2824.000
21.83403 2617.000
21.85431 2139.000
21.87459 1999.000
21.89487 1820.000
21.91515 1697.000
21.93543 1687.000
21.95571 1608.000
21.97599 1598.000
21.99628 1699.000
22.01656 1763.000
22.03684 1834.000
22.05712 1855.000
22.07740 1969.000
22.09768 2076.000
22.11796 2323.000
22.13824 2377.000
22.15852 2485.000
22.17880 2574.000
22.19908 2513.000
22.21936 2482.000
22.23964 2357.000
22.25992 2121.000
22.28020 1830.000
22.30048 1769.000
22.32076 1585.000
22.34104 1289.000
22.36132 1306.000
22.38160 1223.000
22.40188 1228.000
22.42216 1139.000
22.44244 1166.000
22.46272 1138.000
22.48300 1208.000
22.50328 1244.000
22.52356 1289.000
22.54384 1324.000
22.56412 1405.000
22.58440 1419.000
22.60468 1433.000
22.62496 1513.000
22.64524 1606.000
22.66552 1681.000
22.68580 1721.000
22.70608 1775.000
22.72636 1818.000
22.74664 1869.000
22.76692 1835.000
22.78720 1854.000
22.80748 1747.000
22.82776 1561.000
22.84804 1472.000
22.86832 1371.000
22.88860 1329.000
22.90888 1194.000
22.92916 1114.000
22.94944 1179.000
22.96972 1057.000
22.99000 1044.000
23.01028 1096.000
23.03056 1040.000
23.05084 1049.000
23.07112 1093.000
23.09140 1119.000
23.11168 1144.000
23.13196 1095.000
23.15224 1054.000
23.17252 1009.000
23.19280 951.000
23.21308 947.000
23.23336 1036.000
23.25364 1027.000
23.27392 1022.000
23.29420 1058.000
23.31448 1145.000
23.33476 1287.000
23.35504 1360.000
23.37532 1508.000
23.39560 1630.000
23.41588 1663.000
23.43616 1764.000
23.45644 1750.000
23.47672 1711.000
23.49700 1760.000
23.51728 1559.000
23.53756 1410.000
23.55784 1418.000
23.57812 1365.000
23.59840 1296.000
23.61868 1320.000
23.63896 1253.000
23.65924 1278.000
23.67952 1325.000
23.69980 1265.000
23.72008 1321.000
23.74036 1258.000
23.76064 1278.000
23.78092 1188.000
23.80120 1325.000
23.82148 1208.000
23.84176 1178.000
23.86204 1292.000
23.88232 1291.000
23.90261 1411.000
23.92289 1489.000
23.94317 1515.000
23.96345 1605.000
23.98373 1636.000
24.00401 1669.000
24.02429 1629.000
24.04457 1731.000
24.06485 1710.000
24.08513 1655.000
24.10541 1716.000
24.12569 1706.000
24.14597 1793.000
24.16625 1732.000
24.18653 1674.000
24.20681 1661.000
24.22709 1655.000
24.24737 1497.000
24.26765 1409.000
24.28793 1418.000
24.30821 1233.000
24.32849 1212.000
24.34877 1249.000
24.36905 1205.000
24.38933 1310.000
24.40961 1231.000
24.42989 1273.000
24.45017 1291.000
24.47045 1314.000
24.49073 1268.000
24.51101 1242.000
24.53129 1196.000
24.55157 1175.000
24.57185 1069.000
24.59213 1193.000
24.61241 1146.000
24.63269 1201.000
24.65297 1261.000
24.67325 1278.000
24.69353 1478.000
24.71381 1461.000
24.73409 1524.000
24.75437 1527.000
24.77465 1638.000
24.79493 1701.000
24.81521 1539.000
24.83549 1579.000
24.85577 1431.000
24.87605 1377.000
24.89633 1371.000
24.91661 1288.000
24.93689 1226.000
24.95717 1169.000
24.97745 1126.000
24.99773 1062.000
25.01801 1029.000
25.03829 997.000
25.05857 1028.000
25.07885 1065.000
25.09913 1124.000
25.11941 1170.000
25.13969 1243.000
25.15997 1276.000
25.18025 1393.000
25.20053 1597.000
25.22081 1692.000
25.24109 1875.000
25.26137 2177.000
25.28165 2411.000
25.30193 2419.000
25.32221 2859.000
25.34249 2736.000
25.36277 2819.000
25.38305 2809.000
25.40333 2593.000
25.42361 2425.000
25.44389 2296.000
25.46417 2014.000
25.48445 1755.000
25.50473 1733.000
25.52501 1596.000
25.54529 1376.000
25.56557 1364.000
25.58585 1264.000
25.60613 1148.000
25.62641 1124.000
25.64669 1090.000
25.66697 1063.000
25.68725 1187.000
25.70753 1227.000
25.72781 1249.000
25.74809 1264.000
25.76837 1353.000
25.78865 1359.000
25.80893 1478.000
25.82922 1465.000
25.84950 1523.000
25.86978 1460.000
25.89006 1334.000
25.91034 1407.000
25.93062 1407.000
25.95090 1262.000
25.97118 1257.000
25.99146 1438.000
26.01174 1519.000
26.03202 1558.000
26.05230 1682.000
26.07258 1840.000
26.09286 1830.000
26.11314 2023.000
26.13342 1954.000
26.15370 1933.000
26.17398 1987.000
26.19426 1942.000
26.21454 1753.000
26.23482 1782.000
26.25510 1710.000
26.27538 1574.000
26.29566 1612.000
26.31594 1684.000
26.33622 1592.000
26.35650 1646.000
26.37678 1601.000
26.39706 1435.000
26.41734 1521.000
26.43762 1443.000
26.45790 1388.000
26.47818 1487.000
26.49846 1439.000
26.51874 1366.000
26.53902 1305.000
26.55930 1212.000
26.57958 1139.000
26.59986 1037.000
26.62014 1049.000
26.64042 937.000
26.66070 947.000
26.68098 884.000
26.70126 842.000
26.72154 878.000
26.74182 841.000
26.76210 861.000
26.78238 890.000
26.80266 918.000
26.82294 924.000
26.84322 967.000
26.86350 1035.000
26.88378 1002.000
26.90406 1152.000
26.92434 1042.000
26.94462 1072.000
26.96490 1080.000
26.98518 986.000
27.00546 941.000
27.02574 908.000
27.04602 839.000
27.06630 792.000
27.08658 779.000
27.10686 718.000
27.12714 750.000
27.14742 742.000
27.16770 701.000
27.18798 695.000
27.20826 701.000
27.22854 736.000
27.24882 778.000
27.26910 795.000
27.28938 731.000
27.30966 701.000
27.32994 837.000
27.35022 788.000
27.37050 804.000
27.39078 759.000
27.41106 773.000
27.43134 832.000
27.45162 837.000
27.47190 843.000
27.49218 894.000
27.51246 902.000
27.53274 885.000
27.55302 833.000
27.57330 962.000
27.59358 874.000
27.61386 844.000
27.63414 781.000
27.65442 718.000
27.67470 651.000
27.69498 693.000
27.71526 610.000
27.73555 634.000
27.75583 615.000
27.77611 621.000
27.79639 588.000
27.81667 651.000
27.83695 644.000
27.85723 636.000
27.87751 660.000
27.89779 619.000
27.91807 569.000
27.93835 682.000
27.95863 652.000
27.97891 678.000
27.99919 643.000
28.01947 625.000
28.03975 606.000
28.06003 669.000
28.08031 641.000
28.10059 617.000
28.12087 644.000
28.14115 598.000
28.16143 586.000
28.18171 641.000
28.20199 635.000
28.22227 630.000
28.24255 652.000
28.26283 664.000
28.28311 655.000
28.30339 798.000
28.32367 737.000
28.34395 802.000
28.36423 863.000
28.38451 968.000
28.40479 962.000
28.42507 1082.000
28.44535 1157.000
28.46563 1300.000
28.48591 1438.000
28.50619 1471.000
28.52647 1666.000
28.54675 1866.000
28.56703 1922.000
28.58731 1939.000
28.60759 1996.000
28.62787 1962.000
28.64815 1906.000
28.66843 1842.000
28.68871 1753.000
28.70899 1694.000
28.72927 1552.000
28.74955 1513.000
28.76983 1537.000
28.79011 1358.000
28.81039 1347.000
28.83067 1202.000
28.85095 1118.000
28.87123 1073.000
28.89151 939.000
28.91179 887.000
28.93207 811.000
28.95235 725.000
28.97263 735.000
28.99291 707.000
29.01319 638.000
29.03347 664.000
29.05375 642.000
29.07403 687.000
29.09431 605.000
29.11459 685.000
29.13487 611.000
29.15515 641.000
29.17543 628.000
29.19571 684.000
29.21599 663.000
29.23627 638.000
29.25655 702.000
29.27683 662.000
29.29711 657.000
29.31739 600.000
29.33767 644.000
29.35795 633.000
29.37823 630.000
29.39851 580.000
29.41879 635.000
29.43907 612.000
29.45935 616.000
29.47963 674.000
29.49991 646.000
29.52019 629.000
29.54047 685.000
29.56075 678.000
29.58103 723.000
29.60131 785.000
29.62159 798.000
29.64188 836.000
29.66216 931.000
29.68244 997.000
29.70272 1093.000
29.72300 1123.000
29.74328 1184.000
29.76356 1346.000
29.78384 1433.000
29.80412 1492.000
29.82440 1485.000
29.84468 1545.000
29.86496 1473.000
29.88524 1516.000
29.90552 1433.000
29.92580 1358.000
29.94608 1359.000
29.96636 1330.000
29.98664 1303.000
30.00692 1244.000
30.02720 1280.000
30.04748 1316.000
30.06776 1372.000
30.08804 1289.000
30.10832 1257.000
30.12860 1321.000
30.14888 1201.000
30.16916 1182.000
30.18944 1138.000
30.20972 1196.000
30.23000 1154.000
30.25028 1099.000
30.27056 1064.000
30.29084 918.000
30.31112 973.000
30.33140 896.000
30.35168 868.000
30.37196 854.000
30.39224 849.000
30.41252 854.000
30.43280 721.000
30.45308 770.000
30.47336 698.000
30.49364 682.000
30.51392 646.000
30.53420 635.000
30.55448 626.000
30.57476 644.000
30.59504 629.000
30.61532 597.000
30.63560 597.000
30.65588 622.000
30.67616 649.000
30.69644 658.000
30.71672 681.000
30.73700 625.000
30.75728 652.000
30.77756 757.000
30.79784 689.000
30.81812 695.000
30.83840 714.000
30.85868 733.000
30.87896 764.000
30.89924 760.000
30.91952 722.000
30.93980 763.000
30.96008 823.000
30.98036 751.000
31.00064 734.000
31.02092 716.000
31.04120 729.000
31.06148 752.000
31.08176 680.000
31.10204 700.000
31.12232 666.000
31.14260 759.000
31.16288 762.000
31.18316 790.000
31.20344 785.000
31.22372 862.000
31.24400 820.000
31.26428 857.000
31.28456 872.000
31.30484 946.000
31.32512 1025.000
31.34540 1000.000
31.36568 1032.000
31.38596 1045.000
31.40624 1014.000
31.42652 1032.000
31.44680 1066.000
31.46708 1062.000
31.48736 1089.000
31.50764 1136.000
31.52792 1085.000
31.54821 1242.000
31.56849 1215.000
31.58877 1264.000
31.60905 1382.000
31.62933 1386.000
31.64961 1467.000
31.66989 1435.000
31.69017 1453.000
31.71045 1386.000
31.73073 1317.000
31.75101 1318.000
31.77129 1217.000
31.79157 1093.000
31.81185 1065.000
31.83213 1040.000
31.85241 990.000
31.87269 1001.000
31.89297 969.000
31.91325 993.000
31.93353 939.000
31.95381 915.000
31.97409 953.000
31.99437 974.000
32.01465 939.000
32.03493 938.000
32.05521 984.000
32.07549 976.000
32.09577 959.000
32.11605 909.000
32.13633 892.000
32.15661 874.000
32.17689 830.000
32.19717 762.000
32.21745 783.000
32.23773 687.000
32.25801 728.000
32.27829 732.000
32.29857 712.000
32.31885 713.000
32.33913 732.000
32.35941 757.000
32.37969 686.000
32.39997 757.000
32.42025 744.000
32.44053 708.000
32.46081 711.000
32.48109 669.000
32.50137 627.000
32.52165 593.000
32.54193 623.000
32.56221 656.000
32.58249 607.000
32.60277 590.000
32.62305 660.000
32.64333 645.000
32.66361 620.000
32.68389 593.000
32.70417 599.000
32.72445 600.000
32.74473 627.000
32.76501 545.000
32.78529 585.000
32.80557 541.000
32.82585 591.000
32.84613 569.000
32.86641 587.000
32.88669 607.000
32.90697 562.000
32.92725 570.000
32.94753 611.000
32.96781 532.000
32.98809 594.000
33.00837 613.000
33.02865 643.000
33.04893 658.000
33.06921 720.000
33.08949 684.000
33.10977 731.000
33.13005 767.000
33.15033 734.000
33.17061 801.000
33.19089 772.000
33.21117 774.000
33.23145 685.000
33.25173 726.000
33.27201 727.000
33.29229 697.000
33.31257 726.000
33.33285 627.000
33.35313 602.000
33.37341 658.000
33.39369 670.000
33.41397 699.000
33.43425 656.000
33.45454 662.000
33.47482 675.000
33.49510 679.000
33.51538 616.000
33.53566 698.000
33.55594 667.000
33.57622 714.000
33.59650 775.000
33.61678 748.000
33.63706 766.000
33.65734 729.000
33.67762 771.000
33.69790 765.000
33.71818 772.000
33.73846 700.000
33.75874 700.000
33.77902 683.000
33.79930 642.000
33.81958 646.000
33.83986 586.000
33.86014 626.000
33.88042 611.000
33.90070 569.000
33.92098 598.000
33.94126 569.000
33.96154 501.000
33.98182 527.000
34.00210 520.000
34.02238 556.000
34.04266 550.000
34.06294 530.000
34.08322 533.000
34.10350 554.000
34.12378 538.000
34.14406 528.000
34.16434 563.000
34.18462 579.000
34.20490 537.000
34.22518 567.000
34.24546 514.000
34.26574 518.000
34.28602 527.000
34.30630 492.000
34.32658 517.000
34.34686 488.000
34.36714 492.000
34.38742 476.000
34.40770 483.000
34.42798 484.000
34.44826 448.000
34.46854 460.000
34.48882 466.000
34.50910 476.000
34.52938 540.000
34.54966 498.000
34.56994 521.000
34.59022 577.000
34.61050 563.000
34.63078 540.000
34.65106 587.000
34.67134 575.000
34.69162 572.000
34.71190 583.000
34.73218 663.000
34.75246 557.000
34.77274 649.000
34.79302 632.000
34.81330 650.000
34.83358 660.000
34.85386 713.000
34.87414 732.000
34.89442 734.000
34.91470 761.000
34.93498 787.000
34.95526 846.000
34.97554 802.000
34.99582 816.000
35.01610 857.000
35.03638 953.000
35.05666 881.000
35.07694 925.000
35.09722 976.000
35.11750 938.000
35.13778 945.000
35.15806 903.000
35.17834 799.000
35.19862 837.000
35.21890 867.000
35.23918 858.000
35.25946 840.000
35.27974 787.000
35.30002 805.000
35.32030 825.000
35.34058 785.000
35.36087 790.000
35.38115 734.000
35.40143 678.000
35.42171 636.000
35.44199 617.000
35.46227 639.000
35.48255 627.000
35.50283 607.000
35.52311 514.000
35.54339 576.000
35.56367 553.000
35.58395 533.000
35.60423 577.000
35.62451 532.000
35.64479 526.000
35.66507 553.000
35.68535 568.000
35.70563 556.000
35.72591 542.000
35.74619 546.000
35.76647 561.000
35.78675 558.000
35.80703 577.000
35.82731 587.000
35.84759 593.000
35.86787 589.000
35.88815 612.000
35.90843 645.000
35.92871 625.000
35.94899 681.000
35.96927 671.000
35.98955 718.000
36.00983 791.000
36.03011 768.000
36.05039 740.000
36.07067 834.000
36.09095 815.000
36.11123 836.000
36.13151 888.000
36.15179 914.000
36.17207 927.000
36.19235 950.000
36.21263 1022.000
36.23291 1023.000
36.25319 1025.000
36.27347 946.000
36.29375 950.000
36.31403 962.000
36.33431 934.000
36.35459 925.000
36.37487 865.000
36.39515 851.000
36.41543 839.000
36.43571 739.000
36.45599 696.000
36.47627 703.000
36.49655 724.000
36.51683 708.000
36.53711 657.000
36.55739 624.000
36.57767 605.000
36.59795 599.000
36.61823 577.000
36.63851 588.000
36.65879 615.000
36.67907 570.000
36.69935 566.000
36.71963 594.000
36.73991 591.000
36.76019 579.000
36.78047 574.000
36.80075 589.000
36.82103 591.000
36.84131 560.000
36.86159 536.000
36.88187 512.000
36.90215 528.000
36.92243 493.000
36.94271 539.000
36.96299 486.000
36.98327 516.000
37.00355 526.000
37.02383 538.000
37.04411 559.000
37.06439 550.000
37.08467 587.000
37.10495 565.000
37.12523 566.000
37.14551 654.000
37.16579 610.000
37.18607 704.000
37.20635 653.000
37.22663 677.000
37.24691 689.000
37.26720 640.000
37.28748 701.000
37.30776 659.000
37.32804 679.000
37.34832 664.000
37.36860 637.000
37.38888 615.000
37.40916 648.000
37.42944 644.000
37.44972 591.000
37.47000 632.000
37.49028 574.000
37.51056 583.000
37.53084 553.000
37.55112 528.000
37.57140 532.000
37.59168 520.000
37.61196 525.000
37.63224 542.000
37.65252 462.000
37.67280 500.000
37.69308 525.000
37.71336 485.000
37.73364 519.000
37.75392 519.000
37.77420 520.000
37.79448 527.000
37.81476 516.000
37.83504 564.000
37.85532 570.000
37.87560 580.000
37.89588 589.000
37.91616 591.000
37.93644 628.000
37.95672 647.000
37.97700 618.000
37.99728 666.000
38.01756 625.000
38.03784 653.000
38.05812 617.000
38.07840 659.000
38.09868 592.000
38.11896 603.000
38.13924 600.000
38.15952 590.000
38.17980 598.000
38.20008 632.000
38.22036 666.000
38.24064 660.000
38.26092 667.000
38.28120 675.000
38.30148 654.000
38.32176 753.000
38.34204 706.000
38.36232 698.000
38.38260 693.000
38.40288 708.000
38.42316 680.000
38.44344 754.000
38.46372 738.000
38.48400 682.000
38.50428 638.000
38.52456 667.000
38.54484 676.000
38.56512 647.000
38.58540 630.000
38.60568 631.000
38.62596 573.000
38.64624 661.000
38.66652 561.000
38.68680 613.000
38.70708 626.000
38.72736 583.000
38.74764 614.000
38.76792 663.000
38.78820 607.000
38.80848 666.000
38.82876 627.000
38.84904 651.000
38.86932 666.000
38.88960 699.000
38.90988 625.000
38.93016 694.000
38.95044 701.000
38.97072 745.000
38.99100 746.000
39.01128 814.000
39.03156 793.000
39.05184 786.000
39.07212 786.000
39.09240 804.000
39.11268 742.000
39.13296 704.000
39.15324 743.000
39.17353 704.000
39.19381 670.000
39.21409 651.000
39.23437 643.000
39.25465 612.000
39.27493 592.000
39.29521 606.000
39.31549 583.000
39.33577 607.000
39.35605 600.000
39.37633 582.000
39.39661 602.000
39.41689 581.000
39.43717 592.000
39.45745 616.000
39.47773 604.000
39.49801 617.000
39.51829 636.000
39.53857 578.000
39.55885 575.000
39.57913 604.000
39.59941 648.000
39.61969 600.000
39.63997 653.000
39.66025 589.000
39.68053 624.000
39.70081 578.000
39.72109 601.000
39.74137 578.000
39.76165 592.000
39.78193 552.000
39.80221 598.000
39.82249 574.000
39.84277 563.000
39.86305 591.000
39.88333 581.000
39.90361 554.000
39.92389 570.000
39.94417 573.000
39.96445 603.000
39.98473 585.000
40.00501 631.000
40.02529 594.000
40.04557 602.000
40.06585 629.000
40.08613 621.000
40.10641 626.000
40.12669 614.000
40.14697 626.000
40.16725 567.000
40.18753 594.000
40.20781 662.000
40.22809 639.000
40.24837 651.000
40.26865 638.000
40.28893 657.000
40.30921 682.000
40.32949 638.000
40.34977 718.000
40.37005 701.000
40.39033 760.000
40.41061 834.000
40.43089 778.000
40.45117 882.000
40.47145 858.000
40.49173 814.000
40.51201 891.000
40.53229 863.000
40.55257 890.000
40.57285 873.000
40.59313 901.000
40.61341 856.000
40.63369 802.000
40.65397 886.000
40.67425 798.000
40.69453 783.000
40.71481 752.000
40.73509 734.000
40.75537 646.000
40.77565 671.000
40.79593 646.000
40.81621 647.000
40.83649 586.000
40.85677 584.000
40.87705 556.000
40.89733 535.000
40.91761 571.000
40.93789 527.000
40.95817 550.000
40.97845 532.000
40.99873 553.000
41.01901 581.000
41.03929 547.000
41.05957 570.000
41.07986 585.000
41.10014 568.000
41.12042 569.000
41.14070 593.000
41.16098 586.000
41.18126 597.000
41.20154 567.000
41.22182 558.000
41.24210 602.000
41.26238 578.000
41.28266 584.000
41.30294 562.000
41.32322 616.000
41.34350 561.000
41.36378 558.000
41.38406 519.000
41.40434 534.000
41.42462 519.000
41.44490 499.000
41.46518 514.000
41.48546 491.000
41.50574 491.000
41.52602 511.000
41.54630 490.000
41.56658 479.000
41.58686 495.000
41.60714 477.000
41.62742 532.000
41.64770 502.000
41.66798 500.000
41.68826 529.000
41.70854 521.000
41.72882 494.000
41.74910 477.000
41.76938 444.000
41.78966 497.000
41.80994 500.000
41.83022 505.000
41.85050 498.000
41.87078 517.000
41.89106 474.000
41.91134 458.000
41.93162 462.000
41.95190 463.000
41.97218 499.000
41.99246 448.000
42.01274 468.000
42.03302 440.000
42.05330 411.000
42.07358 442.000
42.09386 409.000
42.11414 411.000
42.13442 452.000
42.15470 471.000
42.17498 448.000
42.19526 461.000
42.21554 435.000
42.23582 487.000
42.25610 455.000
42.27638 487.000
42.29666 489.000
42.31694 404.000
42.33722 482.000
42.35750 482.000
42.37778 527.000
42.39806 512.000
42.41834 503.000
42.43862 531.000
42.45890 548.000
42.47918 578.000
42.49946 562.000
42.51974 597.000
42.54002 589.000
42.56030 618.000
42.58058 584.000
42.60086 582.000
42.62114 608.000
42.64142 587.000
42.66170 619.000
42.68198 574.000
42.70226 578.000
42.72254 566.000
42.74282 556.000
42.76310 512.000
42.78338 540.000
42.80366 554.000
42.82394 488.000
42.84422 516.000
42.86450 501.000
42.88478 528.000
42.90506 545.000
42.92534 495.000
42.94562 505.000
42.96590 528.000
42.98619 514.000
43.00647 560.000
43.02675 547.000
43.04703 501.000
43.06731 565.000
43.08759 543.000
43.10787 519.000
43.12815 559.000
43.14843 550.000
43.16871 578.000
43.18899 558.000
43.20927 581.000
43.22955 569.000
43.24983 609.000
43.27011 628.000
43.29039 741.000
43.31067 734.000
43.33095 603.000
43.35123 558.000
43.37151 564.000
43.39179 621.000
43.41207 644.000
43.43235 662.000
43.45263 613.000
43.47291 568.000
43.49319 563.000
43.51347 564.000
43.53375 582.000
43.55403 579.000
43.57431 531.000
43.59459 587.000
43.61487 579.000
43.63515 622.000
43.65543 608.000
43.67571 622.000
43.69599 597.000
43.71627 592.000
43.73655 592.000
43.75683 573.000
43.77711 623.000
43.79739 585.000
43.81767 649.000
43.83795 583.000
43.85823 583.000
43.87851 571.000
43.89879 588.000
43.91907 598.000
43.93935 575.000
43.95963 548.000
43.97991 581.000
44.00019 551.000
44.02047 531.000
44.04075 562.000
44.06103 549.000
44.08131 541.000
44.10159 550.000
44.12187 542.000
44.14215 522.000
44.16243 565.000
44.18271 568.000
44.20299 574.000
44.22327 544.000
44.24355 609.000
44.26383 621.000
44.28411 600.000
44.30439 626.000
44.32467 630.000
44.34495 657.000
44.36523 640.000
44.38551 634.000
44.40579 660.000
44.42607 683.000
44.44635 672.000
44.46663 703.000
44.48691 726.000
44.50719 702.000
44.52747 729.000
44.54775 693.000
44.56803 681.000
44.58831 656.000
44.60859 659.000
44.62887 691.000
44.64915 642.000
44.66943 661.000
44.68971 699.000
44.70999 650.000
44.73027 628.000
44.75055 677.000
44.77083 632.000
44.79111 620.000
44.81139 637.000
44.83167 619.000
44.85195 629.000
44.87223 606.000
44.89251 601.000
44.91280 633.000
44.93308 595.000
44.95336 600.000
44.97364 607.000
44.99392 586.000
45.01420 582.000
45.03448 567.000
45.05476 580.000
45.07504 605.000
45.09532 634.000
45.11560 580.000
45.13588 553.000
45.15616 566.000
45.17644 594.000
45.19672 594.000
45.21700 570.000
45.23728 544.000
45.25756 577.000
45.27784 568.000
45.29812 548.000
45.31840 576.000
45.33868 578.000
45.35896 544.000
45.37924 567.000
45.39952 581.000
45.41980 585.000
45.44008 616.000
45.46036 567.000
45.48064 634.000
45.50092 591.000
45.52120 612.000
45.54148 599.000
45.56176 598.000
45.58204 604.000
45.60232 572.000
45.62260 586.000
45.64288 623.000
45.66316 569.000
45.68344 542.000
45.70372 572.000
45.72400 584.000
45.74428 573.000
45.76456 528.000
45.78484 524.000
45.80512 583.000
45.82540 507.000
45.84568 528.000
45.86596 510.000
45.88624 527.000
45.90652 521.000
45.92680 550.000
45.94708 509.000
45.96736 536.000
45.98764 520.000
46.00792 519.000
46.02820 558.000
46.04848 541.000
46.06876 500.000
46.08904 536.000
46.10932 554.000
46.12960 510.000
46.14988 552.000
46.17016 552.000
46.19044 563.000
46.21072 564.000
46.23100 573.000
46.25128 580.000
46.27156 532.000
46.29184 559.000
46.31212 581.000
46.33240 574.000
46.35268 614.000
46.37296 578.000
46.39324 613.000
46.41352 610.000
46.43380 632.000
46.45408 620.000
46.47436 594.000
46.49464 596.000
46.51492 645.000
46.53520 607.000
46.55548 678.000
46.57576 672.000
46.59604 649.000
46.61632 671.000
46.63660 645.000
46.65688 633.000
46.67716 611.000
46.69744 620.000
46.71772 567.000
46.73800 567.000
46.75828 534.000
46.77856 551.000
46.79884 578.000
46.81913 543.000
46.83941 578.000
46.85969 560.000
46.87997 524.000
46.90025 565.000
46.92053 531.000
46.94081 522.000
46.96109 490.000
46.98137 529.000
47.00165 524.000
47.02193 531.000
47.04221 509.000
47.06249 516.000
47.08277 532.000
47.10305 540.000
47.12333 553.000
47.14361 535.000
47.16389 524.000
47.18417 503.000
47.20445 532.000
47.22473 553.000
47.24501 527.000
47.26529 556.000
47.28557 529.000
47.30585 547.000
47.32613 569.000
47.34641 550.000
47.36669 475.000
47.38697 581.000
47.40725 555.000
47.42753 564.000
47.44781 509.000
47.46809 539.000
47.48837 528.000
47.50865 545.000
47.52893 572.000
47.54921 538.000
47.56949 529.000
47.58977 523.000
47.61005 540.000
47.63033 536.000
47.65061 557.000
47.67089 514.000
47.69117 505.000
47.71145 526.000
47.73173 527.000
47.75201 517.000
47.77229 544.000
47.79257 537.000
47.81285 551.000
47.83313 505.000
47.85341 538.000
47.87369 549.000
47.89397 554.000
47.91425 581.000
47.93453 558.000
47.95481 549.000
47.97509 590.000
47.99537 596.000
48.01565 580.000
48.03593 551.000
48.05621 563.000
48.07649 523.000
48.09677 554.000
48.11705 516.000
48.13733 505.000
48.15761 510.000
48.17789 523.000
48.19817 506.000
48.21845 527.000
48.23873 523.000
48.25901 493.000
48.27929 511.000
48.29957 501.000
48.31985 531.000
48.34013 503.000
48.36041 512.000
48.38069 468.000
48.40097 540.000
48.42125 506.000
48.44153 488.000
48.46181 496.000
48.48209 506.000
48.50237 483.000
48.52265 492.000
48.54293 504.000
48.56321 454.000
48.58349 485.000
48.60377 488.000
48.62405 496.000
48.64433 526.000
48.66461 488.000
48.68489 445.000
48.70517 496.000
48.72546 535.000
48.74574 490.000
48.76602 499.000
48.78630 495.000
48.80658 491.000
48.82686 506.000
48.84714 469.000
48.86742 508.000
48.88770 522.000
48.90798 484.000
48.92826 527.000
48.94854 519.000
48.96882 512.000
48.98910 484.000
49.00938 528.000
49.02966 509.000
49.04994 500.000
49.07022 507.000
49.09050 498.000
49.11078 476.000
49.13106 510.000
49.15134 516.000
49.17162 486.000
49.19190 502.000
49.21218 503.000
49.23246 486.000
49.25274 541.000
49.27302 518.000
49.29330 494.000
49.31358 506.000
49.33386 468.000
49.35414 503.000
49.37442 438.000
49.39470 470.000
49.41498 470.000
49.43526 486.000
49.45554 465.000
49.47582 484.000
49.49610 471.000
49.51638 453.000
49.53666 465.000
49.55694 421.000
49.57722 459.000
49.59750 437.000
49.61778 456.000
49.63806 465.000
49.65834 459.000
49.67862 409.000
49.69890 445.000
49.71918 470.000
49.73946 474.000
49.75974 451.000
49.78002 475.000
49.80030 470.000
49.82058 472.000
49.84086 439.000
49.86114 470.000
49.88142 477.000
49.90170 469.000
49.92198 473.000
49.94226 439.000
49.96254 457.000
49.98282 452.000
50.00310 450.000
