5.00155 923.000
5.02183 801.000
5.04211 806.000
5.06239 897.000
5.08267 827.000
5.10295 869.000
5.12323 828.000
5.14351 821.000
5.16379 803.000
5.18407 769.000
5.20435 786.000
5.22463 849.000
5.24491 787.000
5.26519 786.000
5.28547 765.000
5.30575 690.000
5.32603 790.000
5.34631 711.000
5.36659 775.000
5.38687 760.000
5.40715 672.000
5.42743 717.000
5.44771 685.000
5.46799 689.000
5.48827 754.000
5.50855 708.000
5.52883 687.000
5.54911 684.000
5.56939 676.000
5.58967 619.000
5.60995 658.000
5.63023 660.000
5.65051 649.000
5.67079 654.000
5.69107 610.000
5.71135 600.000
5.73163 627.000
5.75191 635.000
5.77219 646.000
5.79247 576.000
5.81275 671.000
5.83303 595.000
5.85331 596.000
5.87359 590.000
5.89387 569.000
5.91415 564.000
5.93443 550.000
5.95471 569.000
5.97499 575.000
5.99527 598.000
6.01555 580.000
6.03583 604.000
6.05611 640.000
6.07639 599.000
6.09667 587.000
6.11695 598.000
6.13723 600.000
6.15751 598.000
6.17779 596.000
6.19807 602.000
6.21835 563.000
6.23863 583.000
6.25891 577.000
6.27919 532.000
6.29947 583.000
6.31975 625.000
6.34003 671.000
6.36031 652.000
6.38059 635.000
6.40087 711.000
6.42115 671.000
6.44143 651.000
6.46171 771.000
6.48199 742.000
6.50227 764.000
6.52255 782.000
6.54283 910.000
6.56311 952.000
6.58339 1061.000
6.60367 1247.000
6.62395 1388.000
6.64423 1653.000
6.66451 1905.000
6.68479 2407.000
6.70507 2778.000
6.72536 3374.000
6.74564 4106.000
6.76592 4687.000
6.78620 5173.000
6.80648 5467.000
6.82676 5426.000
6.84704 5000.000
6.86732 4381.000
6.88760 3449.000
6.90788 2709.000
6.92816 1976.000
6.94844 1440.000
6.96872 1159.000
6.98900 903.000
7.00928 779.000
7.02956 749.000
7.04984 741.000
7.07012 668.000
7.09040 631.000
7.11068 671.000
7.13096 652.000
7.15124 556.000
7.17152 527.000
7.19180 587.000
7.21208 540.000
7.23236 507.000
7.25264 530.000
7.27292 498.000
7.29320 466.000
7.31348 450.000
7.33376 497.000
7.35404 501.000
7.37432 481.000
7.39460 503.000
7.41488 511.000
7.43516 484.000
7.45544 462.000
7.47572 473.000
7.49600 461.000
7.51628 471.000
7.53656 500.000
7.55684 503.000
7.57712 490.000
7.59740 458.000
7.61768 539.000
7.63796 495.000
7.65824 495.000
7.67852 469.000
7.69880 500.000
7.71908 521.000
7.73936 488.000
7.75964 509.000
7.77992 518.000
7.80020 485.000
7.82048 482.000
7.84076 488.000
7.86104 536.000
7.88132 507.000
7.90160 485.000
7.92188 518.000
7.94216 523.000
7.96244 502.000
7.98272 512.000
8.00300 535.000
8.02328 575.000
8.04356 575.000
8.06384 607.000
8.08412 735.000
8.10440 790.000
8.12468 927.000
8.14496 995.000
8.16524 1099.000
8.18552 1289.000
8.20580 1465.000
8.22608 1714.000
8.24636 2057.000
8.26664 2445.000
8.28692 3106.000
8.30720 3760.000
8.32748 4453.000
8.34776 5026.000
8.36804 5362.000
8.38832 5662.000
8.40860 5053.000
8.42888 4158.000
8.44916 3267.000
8.46944 2472.000
8.48972 1987.000
8.51000 1626.000
8.53028 1465.000
8.55056 1308.000
8.57084 1389.000
8.59112 1458.000
8.61140 1439.000
8.63168 1455.000
8.65197 1323.000
8.67225 1289.000
8.69253 1181.000
8.71281 971.000
8.73309 940.000
8.75337 858.000
8.77365 789.000
8.79393 690.000
8.81421 621.000
8.83449 597.000
8.85477 554.000
8.87505 565.000
8.89533 523.000
8.91561 533.000
8.93589 534.000
8.95617 532.000
8.97645 566.000
8.99673 490.000
9.01701 516.000
9.03729 511.000
9.05757 507.000
9.07785 468.000
9.09813 502.000
9.11841 508.000
9.13869 498.000
9.15897 508.000
9.17925 511.000
9.19953 458.000
9.21981 495.000
9.24009 452.000
9.26037 462.000
9.28065 548.000
9.30093 529.000
9.32121 539.000
9.34149 561.000
9.36177 647.000
9.38205 699.000
9.40233 711.000
9.42261 759.000
9.44289 838.000
9.46317 888.000
9.48345 928.000
9.50373 885.000
9.52401 776.000
9.54429 772.000
9.56457 691.000
9.58485 678.000
9.60513 609.000
9.62541 603.000
9.64569 596.000
9.66597 606.000
9.68625 588.000
9.70653 589.000
9.72681 646.000
9.74709 660.000
9.76737 759.000
9.78765 882.000
9.80793 904.000
9.82821 997.000
9.84849 1081.000
9.86877 1049.000
9.88905 1055.000
9.90933 984.000
9.92961 842.000
9.94989 717.000
9.97017 642.000
9.99045 584.000
10.01073 575.000
10.03101 545.000
10.05129 562.000
10.07157 516.000
10.09185 497.000
10.11213 490.000
10.13241 456.000
10.15269 445.000
10.17297 489.000
10.19325 428.000
10.21353 473.000
10.23381 459.000
10.25409 429.000
10.27437 465.000
10.29465 456.000
10.31493 490.000
10.33521 499.000
10.35549 513.000
10.37577 497.000
10.39605 518.000
10.41633 627.000
10.43661 649.000
10.45689 623.000
10.47717 847.000
10.49745 902.000
10.51773 979.000
10.53801 1177.000
10.55830 1135.000
10.57858 1142.000
10.59886 1054.000
10.61914 942.000
10.63942 774.000
10.65970 663.000
10.67998 654.000
10.70026 559.000
10.72054 496.000
10.74082 479.000
10.76110 571.000
10.78138 566.000
10.80166 540.000
10.82194 564.000
10.84222 600.000
10.86250 641.000
10.88278 699.000
10.90306 734.000
10.92334 752.000
10.94362 807.000
10.96390 788.000
10.98418 799.000
11.00446 671.000
11.02474 634.000
11.04502 570.000
11.06530 547.000
11.08558 481.000
11.10586 446.000
11.12614 458.000
11.14642 410.000
11.16670 402.000
11.18698 432.000
11.20726 410.000
11.22754 412.000
11.24782 416.000
11.26810 452.000
11.28838 386.000
11.30866 417.000
11.32894 409.000
11.34922 392.000
11.36950 405.000
11.38978 402.000
11.41006 399.000
11.43034 388.000
11.45062 415.000
11.47090 409.000
11.49118 416.000
11.51146 389.000
11.53174 393.000
11.55202 403.000
11.57230 389.000
11.59258 413.000
11.61286 378.000
11.63314 411.000
11.65342 390.000
11.67370 401.000
11.69398 412.000
11.71426 408.000
11.73454 405.000
11.75482 394.000
11.77510 400.000
11.79538 407.000
11.81566 377.000
11.83594 397.000
11.85622 366.000
11.87650 393.000
11.89678 378.000
11.91706 376.000
11.93734 375.000
11.95762 367.000
11.97790 374.000
11.99818 395.000
12.01846 381.000
12.03874 392.000
12.05902 397.000
12.07930 353.000
12.09958 376.000
12.11986 396.000
12.14014 392.000
12.16042 380.000
12.18070 391.000
12.20098 395.000
12.22126 415.000
12.24154 414.000
12.26182 391.000
12.28210 420.000
12.30238 406.000
12.32266 437.000
12.34294 390.000
12.36322 419.000
12.38350 447.000
12.40378 423.000
12.42406 426.000
12.44434 445.000
12.46463 391.000
12.48491 399.000
12.50519 379.000
12.52547 412.000
12.54575 402.000
12.56603 410.000
12.58631 397.000
12.60659 414.000
12.62687 477.000
12.64715 409.000
12.66743 374.000
12.68771 404.000
12.70799 415.000
12.72827 407.000
12.74855 427.000
12.76883 422.000
12.78911 404.000
12.80939 433.000
12.82967 424.000
12.84995 431.000
12.87023 455.000
12.89051 468.000
12.91079 426.000
12.93107 426.000
12.95135 459.000
12.97163 456.000
12.99191 552.000
13.01219 508.000
13.03247 539.000
13.05275 534.000
13.07303 618.000
13.09331 604.000
13.11359 639.000
13.13387 716.000
13.15415 800.000
13.17443 890.000
13.19471 914.000
13.21499 936.000
13.23527 941.000
13.25555 958.000
13.27583 959.000
13.29611 956.000
13.31639 1045.000
13.33667 1068.000
13.35695 1073.000
13.37723 1052.000
13.39751 1076.000
13.41779 1036.000
13.43807 1056.000
13.45835 1156.000
13.47863 1181.000
13.49891 1405.000
13.51919 1511.000
13.53947 1662.000
13.55975 1704.000
13.58003 1640.000
13.60031 1549.000
13.62059 1441.000
13.64087 1435.000
13.66115 1232.000
13.68143 1254.000
13.70171 1237.000
13.72199 1166.000
13.74227 1136.000
13.76255 1051.000
13.78283 898.000
13.80311 866.000
13.82339 779.000
13.84367 770.000
13.86395 650.000
13.88423 644.000
13.90451 610.000
13.92479 503.000
13.94507 582.000
13.96535 550.000
13.98563 520.000
14.00591 485.000
14.02619 505.000
14.04647 439.000
14.06675 488.000
14.08703 495.000
14.10731 496.000
14.12759 476.000
14.14787 480.000
14.16815 458.000
14.18843 478.000
14.20871 465.000
14.22899 461.000
14.24927 455.000
14.26955 547.000
14.28983 467.000
14.31011 529.000
14.33039 495.000
14.35067 506.000
14.37096 478.000
14.39124 518.000
14.41152 524.000
14.43180 550.000
14.45208 595.000
14.47236 570.000
14.49264 694.000
14.51292 705.000
14.53320 809.000
14.55348 976.000
14.57376 1068.000
14.59404 1319.000
14.61432 1517.000
14.63460 1816.000
14.65488 2101.000
14.67516 2141.000
14.69544 2085.000
14.71572 1949.000
14.73600 1630.000
14.75628 1393.000
14.77656 1191.000
14.79684 1121.000
14.81712 1057.000
14.83740 1110.000
14.85768 1205.000
14.87796 1292.000
14.89824 1407.000
14.91852 1367.000
14.93880 1381.000
14.95908 1262.000
14.97936 1144.000
14.99964 994.000
15.01992 830.000
15.04020 745.000
15.06048 589.000
15.08076 583.000
15.10104 601.000
15.12132 572.000
15.14160 528.000
15.16188 499.000
15.18216 527.000
15.20244 531.000
15.22272 491.000
15.24300 505.000
15.26328 502.000
15.28356 535.000
15.30384 474.000
15.32412 499.000
15.34440 478.000
15.36468 492.000
15.38496 522.000
15.40524 513.000
15.42552 497.000
15.44580 548.000
15.46608 494.000
15.48636 525.000
15.50664 546.000
15.52692 544.000
15.54720 555.000
15.56748 530.000
15.58776 602.000
15.60804 579.000
15.62832 584.000
15.64860 582.000
15.66888 636.000
15.68916 647.000
15.70944 593.000
15.72972 583.000
15.75000 599.000
15.77028 591.000
15.79056 601.000
15.81084 595.000
15.83112 606.000
15.85140 664.000
15.87168 621.000
15.89196 726.000
15.91224 752.000
15.93252 770.000
15.95280 825.000
15.97308 844.000
15.99336 935.000
16.01364 1014.000
16.03392 1158.000
16.05420 1135.000
16.07448 1252.000
16.09476 1144.000
16.11504 1101.000
16.13532 1060.000
16.15560 1086.000
16.17588 1097.000
16.19616 1144.000
16.21644 1282.000
16.23672 1373.000
16.25700 1609.000
16.27729 1829.000
16.29757 2170.000
16.31785 2541.000
16.33813 2854.000
16.35841 3153.000
16.37869 3148.000
16.39897 3102.000
16.41925 2996.000
16.43953 2873.000
16.45981 2473.000
16.48009 2124.000
16.50037 1929.000
16.52065 1793.000
16.54093 1955.000
16.56121 1931.000
16.58149 2078.000
16.60177 2125.000
16.62205 2237.000
16.64233 2297.000
16.66261 2478.000
16.68289 2379.000
16.70317 2461.000
16.72345 2565.000
16.74373 2604.000
16.76401 2832.000
16.78429 2741.000
16.80457 2784.000
16.82485 2601.000
16.84513 2392.000
16.86541 2175.000
16.88569 1888.000
16.90597 1784.000
16.92625 1685.000
16.94653 1713.000
16.96681 1849.000
16.98709 2074.000
17.00737 2365.000
17.02765 2777.000
17.04793 3191.000
17.06821 3727.000
17.08849 4125.000
17.10877 4263.000
17.12905 4469.000
17.14933 4470.000
17.16961 3968.000
17.18989 3452.000
17.21017 3058.000
17.23045 2680.000
17.25073 2341.000
17.27101 2090.000
17.29129 1967.000
17.31157 1956.000
17.33185 1815.000
17.35213 1645.000
17.37241 1562.000
17.39269 1443.000
17.41297 1287.000
17.43325 1281.000
17.45353 1129.000
17.47381 1127.000
17.49409 1038.000
17.51437 986.000
17.53465 1000.000
17.55493 1018.000
17.57521 1044.000
17.59549 995.000
17.61577 1112.000
17.63605 1257.000
17.65633 1377.000
17.67661 1567.000
17.69689 1744.000
17.71717 1944.000
17.73745 2294.000
17.75773 2373.000
17.77801 2572.000
17.79829 2390.000
17.81857 2357.000
17.83885 2223.000
17.85913 2096.000
17.87941 1924.000
17.89969 1957.000
17.91997 2095.000
17.94025 2270.000
17.96053 2535.000
17.98081 3064.000
18.00109 3504.000
18.02137 4192.000
18.04165 4890.000
18.06193 5584.000
18.08221 6138.000
18.10249 6687.000
18.12277 6652.000
18.14305 6327.000
18.16333 5835.000
18.18362 4946.000
18.20390 4387.000
18.22418 3768.000
18.24446 3366.000
18.26474 3008.000
18.28502 2715.000
18.30530 2763.000
18.32558 2638.000
18.34586 2600.000
18.36614 2469.000
18.38642 2487.000
18.40670 2318.000
18.42698 2215.000
18.44726 2095.000
18.46754 2007.000
18.48782 1814.000
18.50810 1783.000
18.52838 1743.000
18.54866 1877.000
18.56894 1933.000
18.58922 2155.000
18.60950 2311.000
18.62978 2668.000
18.65006 2902.000
18.67034 3227.000
18.69062 3363.000
18.71090 3535.000
18.73118 3478.000
18.75146 3142.000
18.77174 3050.000
18.79202 2863.000
18.81230 2617.000
18.83258 2295.000
18.85286 2138.000
18.87314 1977.000
18.89342 2149.000
18.91370 2040.000
18.93398 1959.000
18.95426 1964.000
18.97454 1966.000
18.99482 1892.000
19.01510 1900.000
19.03538 1949.000
19.05566 1819.000
19.07594 1803.000
19.09622 1597.000
19.11650 1490.000
19.13678 1364.000
19.15706 1264.000
19.17734 1231.000
19.19762 1204.000
19.21790 1187.000
19.23818 1268.000
19.25846 1215.000
19.27874 1345.000
19.29902 1362.000
19.31930 1509.000
19.33958 1631.000
19.35986 1861.000
19.38014 2091.000
19.40042 2343.000
19.42070 2728.000
19.44098 2964.000
19.46126 3426.000
19.48154 3730.000
19.50182 3870.000
19.52210 4008.000
19.54238 3811.000
19.56266 3706.000
19.58294 3321.000
19.60322 3084.000
19.62350 2732.000
19.64378 2506.000
19.66406 2389.000
19.68434 2146.000
19.70462 2146.000
19.72490 2232.000
19.74518 2346.000
19.76546 2520.000
19.78574 2681.000
19.80602 2879.000
19.82630 3101.000
19.84658 3310.000
19.86686 3683.000
19.88714 3818.000
19.90742 4112.000
19.92770 4295.000
19.94798 4320.000
19.96826 4125.000
19.98854 3863.000
20.00882 3670.000
20.02910 3345.000
20.04938 3233.000
20.06966 3037.000
20.08995 2874.000
20.11023 2942.000
20.13051 2872.000
20.15079 2799.000
20.17107 3029.000
20.19135 2974.000
20.21163 3007.000
20.23191 3097.000
20.25219 3148.000
20.27247 3408.000
20.29275 3623.000
20.31303 3994.000
20.33331 4314.000
20.35359 4284.000
20.37387 4135.000
20.39415 3764.000
20.41443 3279.000
20.43471 2759.000
20.45499 2220.000
20.47527 1976.000
20.49555 1862.000
20.51583 1775.000
20.53611 1716.000
20.55639 1799.000
20.57667 1812.000
20.59695 1881.000
20.61723 1857.000
20.63751 1807.000
20.65779 1713.000
20.67807 1622.000
20.69835 1601.000
20.71863 1394.000
20.73891 1332.000
20.75919 1268.000
20.77947 1214.000
20.79975 1108.000
20.82003 1161.000
20.84031 1133.000
20.86059 1140.000
20.88087 1127.000
20.90115 1162.000
20.92143 1128.000
20.94171 1171.000
20.96199 1246.000
20.98227 1268.000
21.00255 1229.000
21.02283 1243.000
21.04311 1312.000
21.06339 1384.000
21.08367 1436.000
21.10395 1502.000
21.12423 1659.000
21.14451 1763.000
21.16479 1964.000
21.18507 2177.000
21.20535 2325.000
21.22563 2486.000
21.24591 2738.000
21.26619 2992.000
21.28647 3571.000
21.30675 4188.000
21.32703 4523.000
21.34731 5219.000
21.36759 6095.000
21.38787 6628.000
21.40815 7173.000
21.42843 7656.000
21.44871 8209.000
21.46899 8660.000
21.48927 9082.000
21.50955 9288.000
21.52983 9426.000
21.55011 9804.000
21.57039 9695.000
21.59067 9632.000
21.61095 9381.000
21.63123 9025.000
21.65151 8662.000
21.67179 8240.000
21.69207 7279.000
21.71235 6511.000
21.73263 5454.000
21.75291 4835.000
21.77319 4009.000
21.79347 3259.000
21.81375 2809.000
21.83403 2389.000
21.85431 2081.000
21.87459 1822.000
21.89487 1685.000
21.91515 1492.000
21.93543 1456.000
21.95571 1369.000
21.97599 1351.000
21.99628 1342.000
22.01656 1263.000
22.03684 1274.000
22.05712 1260.000
22.07740 1235.000
22.09768 1252.000
22.11796 1269.000
22.13824 1308.000
22.15852 1293.000
22.17880 1312.000
22.19908 1231.000
22.21936 1224.000
22.23964 1225.000
22.25992 1143.000
22.28020 1113.000
22.30048 1226.000
22.32076 1159.000
22.34104 1255.000
22.36132 1220.000
22.38160 1189.000
22.40188 1346.000
22.42216 1355.000
22.44244 1415.000
22.46272 1498.000
22.48300 1531.000
22.50328 1535.000
22.52356 1507.000
22.54384 1517.000
22.56412 1490.000
22.58440 1408.000
22.60468 1431.000
22.62496 1313.000
22.64524 1297.000
22.66552 1272.000
22.68580 1327.000
22.70608 1302.000
22.72636 1293.000
22.74664 1289.000
22.76692 1365.000
22.78720 1395.000
22.80748 1439.000
22.82776 1397.000
22.84804 1473.000
22.86832 1541.000
22.88860 1491.000
22.90888 1526.000
22.92916 1544.000
22.94944 1582.000
22.96972 1416.000
22.99000 1406.000
23.01028 1459.000
23.03056 1383.000
23.05084 1337.000
23.07112 1256.000
23.09140 1186.000
23.11168 1147.000
23.13196 1103.000
23.15224 1121.000
23.17252 1075.000
23.19280 1026.000
23.21308 1020.000
23.23336 1114.000
23.25364 1186.000
23.27392 1233.000
23.29420 1341.000
23.31448 1364.000
23.33476 1502.000
23.35504 1731.000
23.37532 1962.000
23.39560 2018.000
23.41588 2225.000
23.43616 2418.000
23.45644 2637.000
23.47672 2824.000
23.49700 3095.000
23.51728 3071.000
23.53756 3214.000
23.55784 3176.000
23.57812 3008.000
23.59840 2865.000
23.61868 2641.000
23.63896 2432.000
23.65924 2231.000
23.67952 2103.000
23.69980 1938.000
23.72008 1839.000
23.74036 1626.000
23.76064 1682.000
23.78092 1630.000
23.80120 1683.000
23.82148 1532.000
23.84176 1592.000
23.86204 1469.000
23.88232 1354.000
23.90261 1380.000
23.92289 1286.000
23.94317 1186.000
23.96345 1183.000
23.98373 1166.000
24.00401 1065.000
24.02429 1086.000
24.04457 1108.000
24.06485 1069.000
24.08513 1098.000
24.10541 1098.000
24.12569 1123.000
24.14597 1119.000
24.16625 1202.000
24.18653 1220.000
24.20681 1275.000
24.22709 1335.000
24.24737 1415.000
24.26765 1477.000
24.28793 1660.000
24.30821 1775.000
24.32849 1945.000
24.34877 2059.000
24.36905 2091.000
24.38933 2141.000
24.40961 2238.000
24.42989 2141.000
24.45017 2046.000
24.47045 1886.000
24.49073 1625.000
24.51101 1505.000
24.53129 1280.000
24.55157 1205.000
24.57185 1164.000
24.59213 1161.000
24.61241 1099.000
24.63269 1141.000
24.65297 1238.000
24.67325 1199.000
24.69353 1315.000
24.71381 1330.000
24.73409 1387.000
24.75437 1396.000
24.77465 1375.000
24.79493 1257.000
24.81521 1263.000
24.83549 1133.000
24.85577 1083.000
24.87605 1075.000
24.89633 997.000
24.91661 953.000
24.93689 990.000
24.95717 1014.000
24.97745 959.000
24.99773 1062.000
25.01801 1134.000
25.03829 1150.000
25.05857 1275.000
25.07885 1325.000
25.09913 1500.000
25.11941 1561.000
25.13969 1597.000
25.15997 1712.000
25.18025 1757.000
25.20053 1878.000
25.22081 1929.000
25.24109 1948.000
25.26137 1941.000
25.28165 1885.000
25.30193 1886.000
25.32221 1768.000
25.34249 1703.000
25.36277 1818.000
25.38305 1648.000
25.40333 1658.000
25.42361 1622.000
25.44389 1590.000
25.46417 1542.000
25.48445 1512.000
25.50473 1460.000
25.52501 1318.000
25.54529 1306.000
25.56557 1153.000
25.58585 1120.000
25.60613 1055.000
25.62641 1039.000
25.64669 973.000
25.66697 964.000
25.68725 989.000
25.70753 951.000
25.72781 961.000
25.74809 1001.000
25.76837 915.000
25.78865 1032.000
25.80893 1022.000
25.82922 1037.000
25.84950 1132.000
25.86978 1251.000
25.89006 1225.000
25.91034 1218.000
25.93062 1367.000
25.95090 1393.000
25.97118 1566.000
25.99146 1652.000
26.01174 1658.000
26.03202 1772.000
26.05230 1942.000
26.07258 1845.000
26.09286 1865.000
26.11314 1910.000
26.13342 1770.000
26.15370 1677.000
26.17398 1602.000
26.19426 1565.000
26.21454 1440.000
26.23482 1432.000
26.25510 1302.000
26.27538 1320.000
26.29566 1270.000
26.31594 1222.000
26.33622 1252.000
26.35650 1367.000
26.37678 1310.000
26.39706 1254.000
26.41734 1398.000
26.43762 1361.000
26.45790 1466.000
26.47818 1500.000
26.49846 1413.000
26.51874 1603.000
26.53902 1562.000
26.55930 1574.000
26.57958 1605.000
26.59986 1614.000
26.62014 1517.000
26.64042 1435.000
26.66070 1585.000
26.68098 1426.000
26.70126 1402.000
26.72154 1425.000
26.74182 1239.000
26.76210 1321.000
26.78238 1380.000
26.80266 1253.000
26.82294 1458.000
26.84322 1426.000
26.86350 1451.000
26.88378 1512.000
26.90406 1602.000
26.92434 1567.000
26.94462 1633.000
26.96490 1705.000
26.98518 1560.000
27.00546 1604.000
27.02574 1572.000
27.04602 1535.000
27.06630 1488.000
27.08658 1463.000
27.10686 1339.000
27.12714 1424.000
27.14742 1354.000
27.16770 1264.000
27.18798 1275.000
27.20826 1268.000
27.22854 1220.000
27.24882 1215.000
27.26910 1169.000
27.28938 1161.000
27.30966 1147.000
27.32994 1121.000
27.35022 1154.000
27.37050 1218.000
27.39078 1202.000
27.41106 1204.000
27.43134 1330.000
27.45162 1346.000
27.47190 1253.000
27.49218 1306.000
27.51246 1219.000
27.53274 1236.000
27.55302 1225.000
27.57330 1054.000
27.59358 1075.000
27.61386 950.000
27.63414 857.000
27.65442 835.000
27.67470 818.000
27.69498 751.000
27.71526 673.000
27.73555 693.000
27.75583 621.000
27.77611 662.000
27.79639 642.000
27.81667 645.000
27.83695 628.000
27.85723 652.000
27.87751 542.000
27.89779 630.000
27.91807 613.000
27.93835 654.000
27.95863 616.000
27.97891 645.000
27.99919 664.000
28.01947 650.000
28.03975 628.000
28.06003 663.000
28.08031 555.000
28.10059 616.000
28.12087 671.000
28.14115 650.000
28.16143 678.000
28.18171 669.000
28.20199 674.000
28.22227 748.000
28.24255 744.000
28.26283 727.000
28.28311 876.000
28.30339 880.000
28.32367 902.000
28.34395 948.000
28.36423 1003.000
28.38451 996.000
28.40479 1077.000
28.42507 1087.000
28.44535 1155.000
28.46563 1291.000
28.48591 1168.000
28.50619 1390.000
28.52647 1322.000
28.54675 1391.000
28.56703 1322.000
28.58731 1352.000
28.60759 1352.000
28.62787 1340.000
28.64815 1255.000
28.66843 1214.000
28.68871 1081.000
28.70899 1083.000
28.72927 1040.000
28.74955 960.000
28.76983 983.000
28.79011 975.000
28.81039 877.000
28.83067 969.000
28.85095 943.000
28.87123 891.000
28.89151 880.000
28.91179 917.000
28.93207 885.000
28.95235 966.000
28.97263 984.000
28.99291 1022.000
29.01319 1035.000
29.03347 1047.000
29.05375 1113.000
29.07403 1068.000
29.09431 1034.000
29.11459 1008.000
29.13487 1112.000
29.15515 1053.000
29.17543 1022.000
29.19571 986.000
29.21599 903.000
29.23627 955.000
29.25655 950.000
29.27683 958.000
29.29711 985.000
29.31739 888.000
29.33767 1076.000
29.35795 921.000
29.37823 958.000
29.39851 929.000
29.41879 948.000
29.43907 902.000
29.45935 930.000
29.47963 922.000
29.49991 889.000
29.52019 903.000
29.54047 901.000
29.56075 935.000
29.58103 970.000
29.60131 927.000
29.62159 955.000
29.64188 988.000
29.66216 1057.000
29.68244 1068.000
29.70272 1023.000
29.72300 1165.000
29.74328 1140.000
29.76356 1173.000
29.78384 1202.000
29.80412 1144.000
29.82440 1191.000
29.84468 1282.000
29.86496 1240.000
29.88524 1149.000
29.90552 1236.000
29.92580 1154.000
29.94608 1137.000
29.96636 1103.000
29.98664 1078.000
30.00692 1090.000
30.02720 1119.000
30.04748 1136.000
30.06776 1063.000
30.08804 1009.000
30.10832 954.000
30.12860 975.000
30.14888 916.000
30.16916 982.000
30.18944 918.000
30.20972 883.000
30.23000 823.000
30.25028 821.000
30.27056 802.000
30.29084 845.000
30.31112 886.000
30.33140 876.000
30.35168 859.000
30.37196 939.000
30.39224 854.000
30.41252 885.000
30.43280 940.000
30.45308 890.000
30.47336 818.000
30.49364 794.000
30.51392 747.000
30.53420 738.000
30.55448 749.000
30.57476 656.000
30.59504 659.000
30.61532 609.000
30.63560 615.000
30.65588 610.000
30.67616 585.000
30.69644 607.000
30.71672 595.000
30.73700 549.000
30.75728 603.000
30.77756 634.000
30.79784 558.000
30.81812 598.000
30.83840 606.000
30.85868 572.000
30.87896 586.000
30.89924 668.000
30.91952 704.000
30.93980 686.000
30.96008 658.000
30.98036 641.000
31.00064 741.000
31.02092 691.000
31.04120 797.000
31.06148 738.000
31.08176 760.000
31.10204 816.000
31.12232 834.000
31.14260 856.000
31.16288 814.000
31.18316 813.000
31.20344 840.000
31.22372 808.000
31.24400 800.000
31.26428 802.000
31.28456 757.000
31.30484 768.000
31.32512 737.000
31.34540 686.000
31.36568 691.000
31.38596 687.000
31.40624 604.000
31.42652 683.000
31.44680 641.000
31.46708 682.000
31.48736 685.000
31.50764 689.000
31.52792 726.000
31.54821 732.000
31.56849 691.000
31.58877 720.000
31.60905 743.000
31.62933 824.000
31.64961 791.000
31.66989 817.000
31.69017 836.000
31.71045 768.000
31.73073 769.000
31.75101 811.000
31.77129 772.000
31.79157 784.000
31.81185 781.000
31.83213 766.000
31.85241 755.000
31.87269 737.000
31.89297 777.000
31.91325 757.000
31.93353 822.000
31.95381 750.000
31.97409 765.000
31.99437 796.000
32.01465 782.000
32.03493 766.000
32.05521 823.000
32.07549 773.000
32.09577 763.000
32.11605 776.000
32.13633 742.000
32.15661 707.000
32.17689 677.000
32.19717 687.000
32.21745 692.000
32.23773 672.000
32.25801 706.000
32.27829 658.000
32.29857 626.000
32.31885 649.000
32.33913 667.000
32.35941 644.000
32.37969 626.000
32.39997 625.000
32.42025 666.000
32.44053 605.000
32.46081 583.000
32.48109 583.000
32.50137 564.000
32.52165 627.000
32.54193 569.000
32.56221 603.000
32.58249 574.000
32.60277 574.000
32.62305 576.000
32.64333 601.000
32.66361 552.000
32.68389 590.000
32.70417 535.000
32.72445 633.000
32.74473 605.000
32.76501 607.000
32.78529 648.000
32.80557 617.000
32.82585 599.000
32.84613 621.000
32.86641 578.000
32.88669 596.000
32.90697 588.000
32.92725 664.000
32.94753 672.000
32.96781 662.000
32.98809 659.000
33.00837 680.000
33.02865 698.000
33.04893 730.000
33.06921 674.000
33.08949 688.000
33.10977 725.000
33.13005 707.000
33.15033 736.000
33.17061 717.000
33.19089 724.000
33.21117 707.000
33.23145 813.000
33.25173 746.000
33.27201 734.000
33.29229 787.000
33.31257 764.000
33.33285 809.000
33.35313 766.000
33.37341 747.000
33.39369 801.000
33.41397 791.000
33.43425 767.000
33.45454 725.000
33.47482 707.000
33.49510 690.000
33.51538 643.000
33.53566 624.000
33.55594 640.000
33.57622 601.000
33.59650 673.000
33.61678 626.000
33.63706 623.000
33.65734 591.000
33.67762 621.000
33.69790 629.000
33.71818 553.000
33.73846 543.000
33.75874 594.000
33.77902 583.000
33.79930 547.000
33.81958 592.000
33.83986 566.000
33.86014 588.000
33.88042 613.000
33.90070 624.000
33.92098 560.000
33.94126 649.000
33.96154 576.000
33.98182 637.000
34.00210 625.000
34.02238 601.000
34.04266 658.000
34.06294 668.000
34.08322 727.000
34.10350 707.000
34.12378 645.000
34.14406 663.000
34.16434 689.000
34.18462 652.000
34.20490 677.000
34.22518 729.000
34.24546 733.000
34.26574 747.000
34.28602 652.000
34.30630 748.000
34.32658 753.000
34.34686 743.000
34.36714 736.000
34.38742 775.000
34.40770 819.000
34.42798 878.000
34.44826 925.000
34.46854 954.000
34.48882 983.000
34.50910 1061.000
34.52938 1097.000
34.54966 1199.000
34.56994 1154.000
34.59022 1140.000
34.61050 1075.000
34.63078 1150.000
34.65106 1067.000
34.67134 1014.000
34.69162 985.000
34.71190 969.000
34.73218 927.000
34.75246 915.000
34.77274 878.000
34.79302 862.000
34.81330 905.000
34.83358 890.000
34.85386 874.000
34.87414 918.000
34.89442 881.000
34.91470 913.000
34.93498 1002.000
34.95526 886.000
34.97554 991.000
34.99582 947.000
35.01610 939.000
35.03638 931.000
35.05666 881.000
35.07694 874.000
35.09722 873.000
35.11750 792.000
35.13778 810.000
35.15806 739.000
35.17834 697.000
35.19862 752.000
35.21890 707.000
35.23918 728.000
35.25946 691.000
35.27974 756.000
35.30002 632.000
35.32030 690.000
35.34058 676.000
35.36087 702.000
35.38115 678.000
35.40143 678.000
35.42171 709.000
35.44199 668.000
35.46227 695.000
35.48255 613.000
35.50283 614.000
35.52311 622.000
35.54339 640.000
35.56367 657.000
35.58395 637.000
35.60423 643.000
35.62451 631.000
35.64479 616.000
35.66507 622.000
35.68535 642.000
35.70563 594.000
35.72591 588.000
35.74619 576.000
35.76647 544.000
35.78675 586.000
35.80703 542.000
35.82731 552.000
35.84759 557.000
35.86787 547.000
35.88815 507.000
35.90843 551.000
35.92871 551.000
35.94899 579.000
35.96927 529.000
35.98955 596.000
36.00983 580.000
36.03011 554.000
36.05039 593.000
36.07067 605.000
36.09095 674.000
36.11123 573.000
36.13151 639.000
36.15179 673.000
36.17207 692.000
36.19235 692.000
36.21263 682.000
36.23291 698.000
36.25319 677.000
36.27347 739.000
36.29375 729.000
36.31403 685.000
36.33431 703.000
36.35459 697.000
36.37487 686.000
36.39515 699.000
36.41543 672.000
36.43571 729.000
36.45599 755.000
36.47627 745.000
36.49655 725.000
36.51683 743.000
36.53711 734.000
36.55739 750.000
36.57767 836.000
36.59795 786.000
36.61823 783.000
36.63851 786.000
36.65879 819.000
36.67907 821.000
36.69935 840.000
36.71963 886.000
36.73991 891.000
36.76019 857.000
36.78047 831.000
36.80075 799.000
36.82103 859.000
36.84131 841.000
36.86159 835.000
36.88187 801.000
36.90215 807.000
36.92243 753.000
36.94271 754.000
36.96299 699.000
36.98327 683.000
37.00355 704.000
37.02383 682.000
37.04411 645.000
37.06439 772.000
37.08467 718.000
37.10495 731.000
37.12523 710.000
37.14551 685.000
37.16579 669.000
37.18607 706.000
37.20635 720.000
37.22663 673.000
37.24691 714.000
37.26720 691.000
37.28748 664.000
37.30776 668.000
37.32804 619.000
37.34832 615.000
37.36860 603.000
37.38888 610.000
37.40916 625.000
37.42944 608.000
37.44972 650.000
37.47000 609.000
37.49028 585.000
37.51056 583.000
37.53084 574.000
37.55112 598.000
37.57140 551.000
37.59168 622.000
37.61196 597.000
37.63224 580.000
37.65252 571.000
37.67280 641.000
37.69308 595.000
37.71336 593.000
37.73364 621.000
37.75392 633.000
37.77420 619.000
37.79448 686.000
37.81476 673.000
37.83504 716.000
37.85532 672.000
37.87560 708.000
37.89588 721.000
37.91616 735.000
37.93644 759.000
37.95672 739.000
37.97700 756.000
37.99728 776.000
38.01756 745.000
38.03784 794.000
38.05812 756.000
38.07840 714.000
38.09868 760.000
38.11896 654.000
38.13924 667.000
38.15952 640.000
38.17980 637.000
38.20008 599.000
38.22036 620.000
38.24064 631.000
38.26092 614.000
38.28120 612.000
38.30148 598.000
38.32176 680.000
38.34204 652.000
38.36232 652.000
38.38260 624.000
38.40288 611.000
38.42316 628.000
38.44344 668.000
38.46372 597.000
38.48400 631.000
38.50428 614.000
38.52456 628.000
38.54484 615.000
38.56512 603.000
38.58540 587.000
38.60568 573.000
38.62596 589.000
38.64624 566.000
38.66652 551.000
38.68680 568.000
38.70708 566.000
38.72736 577.000
38.74764 557.000
38.76792 564.000
38.78820 574.000
38.80848 514.000
38.82876 559.000
38.84904 550.000
38.86932 555.000
38.88960 519.000
38.90988 589.000
38.93016 553.000
38.95044 540.000
38.97072 595.000
38.99100 573.000
39.01128 596.000
39.03156 603.000
39.05184 579.000
39.07212 584.000
39.09240 578.000
39.11268 564.000
39.13296 587.000
39.15324 575.000
39.17353 552.000
39.19381 601.000
39.21409 608.000
39.23437 606.000
39.25465 607.000
39.27493 633.000
39.29521 592.000
39.31549 569.000
39.33577 549.000
39.35605 573.000
39.37633 602.000
39.39661 667.000
39.41689 631.000
39.43717 627.000
39.45745 630.000
39.47773 668.000
39.49801 685.000
39.51829 640.000
39.53857 682.000
39.55885 677.000
39.57913 659.000
39.59941 698.000
39.61969 656.000
39.63997 711.000
39.66025 692.000
39.68053 683.000
39.70081 698.000
39.72109 722.000
39.74137 677.000
39.76165 656.000
39.78193 640.000
39.80221 647.000
39.82249 651.000
39.84277 621.000
39.86305 657.000
39.88333 679.000
39.90361 646.000
39.92389 610.000
39.94417 642.000
39.96445 618.000
39.98473 666.000
40.00501 638.000
40.02529 690.000
40.04557 695.000
40.06585 722.000
40.08613 760.000
40.10641 754.000
40.12669 746.000
40.14697 771.000
40.16725 760.000
40.18753 779.000
40.20781 832.000
40.22809 783.000
40.24837 824.000
40.26865 788.000
40.28893 768.000
40.30921 804.000
40.32949 777.000
40.34977 825.000
40.37005 799.000
40.39033 769.000
40.41061 786.000
40.43089 811.000
40.45117 808.000
40.47145 744.000
40.49173 753.000
40.51201 750.000
40.53229 751.000
40.55257 703.000
40.57285 667.000
40.59313 712.000
40.61341 657.000
40.63369 641.000
40.65397 650.000
40.67425 651.000
40.69453 635.000
40.71481 637.000
40.73509 647.000
40.75537 606.000
40.77565 594.000
40.79593 575.000
40.81621 588.000
40.83649 563.000
40.85677 595.000
40.87705 568.000
40.89733 592.000
40.91761 586.000
40.93789 563.000
40.95817 564.000
40.97845 604.000
40.99873 601.000
41.01901 572.000
41.03929 609.000
41.05957 587.000
41.07986 581.000
41.10014 604.000
41.12042 550.000
41.14070 583.000
41.16098 582.000
41.18126 677.000
41.20154 582.000
41.22182 604.000
41.24210 593.000
41.26238 618.000
41.28266 657.000
41.30294 689.000
41.32322 700.000
41.34350 676.000
41.36378 671.000
41.38406 683.000
41.40434 733.000
41.42462 666.000
41.44490 657.000
41.46518 660.000
41.48546 652.000
41.50574 691.000
41.52602 718.000
41.54630 662.000
41.56658 736.000
41.58686 708.000
41.60714 701.000
41.62742 728.000
41.64770 757.000
41.66798 716.000
41.68826 715.000
41.70854 716.000
41.72882 765.000
41.74910 773.000
41.76938 777.000
41.78966 757.000
41.80994 719.000
41.83022 714.000
41.85050 691.000
41.87078 687.000
41.89106 656.000
41.91134 624.000
41.93162 674.000
41.95190 608.000
41.97218 589.000
41.99246 553.000
42.01274 549.000
42.03302 540.000
42.05330 528.000
42.07358 537.000
42.09386 536.000
42.11414 535.000
42.13442 529.000
42.15470 532.000
42.17498 497.000
42.19526 537.000
42.21554 571.000
42.23582 526.000
42.25610 505.000
42.27638 544.000
42.29666 578.000
42.31694 505.000
42.33722 538.000
42.35750 513.000
42.37778 550.000
42.39806 521.000
42.41834 516.000
42.43862 483.000
42.45890 518.000
42.47918 502.000
42.49946 502.000
42.51974 522.000
42.54002 538.000
42.56030 485.000
42.58058 517.000
42.60086 490.000
42.62114 505.000
42.64142 543.000
42.66170 500.000
42.68198 468.000
42.70226 500.000
42.72254 473.000
42.74282 501.000
42.76310 525.000
42.78338 522.000
42.80366 525.000
42.82394 539.000
42.84422 507.000
42.86450 507.000
42.88478 522.000
42.90506 520.000
42.92534 498.000
42.94562 519.000
42.96590 534.000
42.98619 502.000
43.00647 579.000
43.02675 487.000
43.04703 572.000
43.06731 528.000
43.08759 569.000
43.10787 576.000
43.12815 607.000
43.14843 582.000
43.16871 610.000
43.18899 614.000
43.20927 609.000
43.22955 636.000
43.24983 647.000
43.27011 644.000
43.29039 641.000
43.31067 635.000
43.33095 685.000
43.35123 693.000
43.37151 645.000
43.39179 673.000
43.41207 621.000
43.43235 661.000
43.45263 622.000
43.47291 658.000
43.49319 608.000
43.51347 689.000
43.53375 681.000
43.55403 654.000
43.57431 634.000
43.59459 686.000
43.61487 684.000
43.63515 666.000
43.65543 691.000
43.67571 646.000
43.69599 640.000
43.71627 659.000
43.73655 662.000
43.75683 635.000
43.77711 651.000
43.79739 668.000
43.81767 654.000
43.83795 689.000
43.85823 711.000
43.87851 672.000
43.89879 698.000
43.91907 704.000
43.93935 719.000
43.95963 712.000
43.97991 676.000
44.00019 680.000
44.02047 696.000
44.04075 678.000
44.06103 623.000
44.08131 713.000
44.10159 656.000
44.12187 683.000
44.14215 648.000
44.16243 638.000
44.18271 647.000
44.20299 647.000
44.22327 631.000
44.24355 580.000
44.26383 597.000
44.28411 609.000
44.30439 579.000
44.32467 610.000
44.34495 573.000
44.36523 608.000
44.38551 610.000
44.40579 570.000
44.42607 614.000
44.44635 582.000
44.46663 569.000
44.48691 583.000
44.50719 551.000
44.52747 575.000
44.54775 571.000
44.56803 573.000
44.58831 535.000
44.60859 541.000
44.62887 537.000
44.64915 604.000
44.66943 586.000
44.68971 549.000
44.70999 584.000
44.73027 569.000
44.75055 606.000
44.77083 601.000
44.79111 570.000
44.81139 586.000
44.83167 549.000
44.85195 571.000
44.87223 599.000
44.89251 649.000
44.91280 563.000
44.93308 577.000
44.95336 595.000
44.97364 610.000
44.99392 545.000
45.01420 546.000
45.03448 595.000
45.05476 567.000
45.07504 531.000
45.09532 538.000
45.11560 551.000
45.13588 557.000
45.15616 506.000
45.17644 531.000
45.19672 580.000
45.21700 513.000
45.23728 509.000
45.25756 550.000
45.27784 504.000
45.29812 532.000
45.31840 540.000
45.33868 555.000
45.35896 551.000
45.37924 541.000
45.39952 539.000
45.41980 551.000
45.44008 549.000
45.46036 533.000
45.48064 571.000
45.50092 558.000
45.52120 518.000
45.54148 567.000
45.56176 570.000
45.58204 597.000
45.60232 563.000
45.62260 583.000
45.64288 588.000
45.66316 568.000
45.68344 621.000
45.70372 554.000
45.72400 546.000
45.74428 553.000
45.76456 561.000
45.78484 567.000
45.80512 538.000
45.82540 552.000
45.84568 562.000
45.86596 577.000
45.88624 549.000
45.90652 557.000
45.92680 535.000
45.94708 543.000
45.96736 580.000
45.98764 503.000
46.00792 517.000
46.02820 561.000
46.04848 580.000
46.06876 519.000
46.08904 571.000
46.10932 513.000
46.12960 524.000
46.14988 531.000
46.17016 524.000
46.19044 554.000
46.21072 535.000
46.23100 582.000
46.25128 542.000
46.27156 568.000
46.29184 532.000
46.31212 596.000
46.33240 557.000
46.35268 551.000
46.37296 609.000
46.39324 555.000
46.41352 603.000
46.43380 604.000
46.45408 564.000
46.47436 620.000
46.49464 607.000
46.51492 600.000
46.53520 580.000
46.55548 584.000
46.57576 558.000
46.59604 617.000
46.61632 625.000
46.63660 545.000
46.65688 604.000
46.67716 586.000
46.69744 599.000
46.71772 560.000
46.73800 571.000
46.75828 580.000
46.77856 558.000
46.79884 544.000
46.81913 538.000
46.83941 505.000
46.85969 482.000
46.87997 552.000
46.90025 556.000
46.92053 545.000
46.94081 546.000
46.96109 558.000
46.98137 555.000
47.00165 548.000
47.02193 535.000
47.04221 503.000
47.06249 544.000
47.08277 515.000
47.10305 564.000
47.12333 551.000
47.14361 535.000
47.16389 599.000
47.18417 566.000
47.20445 577.000
47.22473 564.000
47.24501 590.000
47.26529 572.000
47.28557 612.000
47.30585 608.000
47.32613 622.000
47.34641 615.000
47.36669 609.000
47.38697 619.000
47.40725 581.000
47.42753 578.000
47.44781 624.000
47.46809 564.000
47.48837 622.000
47.50865 587.000
47.52893 588.000
47.54921 628.000
47.56949 567.000
47.58977 570.000
47.61005 563.000
47.63033 589.000
47.65061 562.000
47.67089 532.000
47.69117 552.000
47.71145 559.000
47.73173 560.000
47.75201 587.000
47.77229 559.000
47.79257 526.000
47.81285 603.000
47.83313 587.000
47.85341 600.000
47.87369 556.000
47.89397 573.000
47.91425 544.000
47.93453 542.000
47.95481 537.000
47.97509 519.000
47.99537 560.000
48.01565 515.000
48.03593 503.000
48.05621 526.000
48.07649 485.000
48.09677 510.000
48.11705 513.000
48.13733 471.000
48.15761 487.000
48.17789 491.000
48.19817 515.000
48.21845 480.000
48.23873 522.000
48.25901 502.000
48.27929 488.000
48.29957 469.000
48.31985 477.000
48.34013 533.000
48.36041 519.000
48.38069 491.000
48.40097 484.000
48.42125 471.000
48.44153 476.000
48.46181 478.000
48.48209 463.000
48.50237 464.000
48.52265 481.000
48.54293 484.000
48.56321 514.000
48.58349 462.000
48.60377 496.000
48.62405 468.000
48.64433 498.000
48.66461 475.000
48.68489 458.000
48.70517 464.000
48.72546 456.000
48.74574 485.000
48.76602 471.000
48.78630 473.000
48.80658 430.000
48.82686 465.000
48.84714 443.000
48.86742 438.000
48.88770 463.000
48.90798 482.000
48.92826 439.000
48.94854 439.000
48.96882 446.000
48.98910 459.000
49.00938 457.000
49.02966 465.000
49.04994 475.000
49.07022 463.000
49.09050 446.000
49.11078 514.000
49.13106 495.000
49.15134 497.000
49.17162 466.000
49.19190 480.000
49.21218 483.000
49.23246 442.000
49.25274 564.000
49.27302 447.000
49.29330 473.000
49.31358 510.000
49.33386 503.000
49.35414 454.000
49.37442 528.000
49.39470 490.000
49.41498 459.000
49.43526 499.000
49.45554 520.000
49.47582 496.000
49.49610 523.000
49.51638 461.000
49.53666 465.000
49.55694 435.000
49.57722 474.000
49.59750 451.000
49.61778 506.000
49.63806 476.000
49.65834 463.000
49.67862 522.000
49.69890 471.000
49.71918 499.000
49.73946 489.000
49.75974 454.000
49.78002 511.000
49.80030 424.000
49.82058 480.000
49.84086 472.000
49.86114 506.000
49.88142 481.000
49.90170 472.000
49.92198 485.000
49.94226 500.000
49.96254 490.000
49.98282 485.000
50.00310 469.000
