5.00155 900.000
5.02183 877.000
5.04211 837.000
5.06239 867.000
5.08267 864.000
5.10295 834.000
5.12323 801.000
5.14351 867.000
5.16379 782.000
5.18407 811.000
5.20435 802.000
5.22463 830.000
5.24491 807.000
5.26519 765.000
5.28547 779.000
5.30575 772.000
5.32603 733.000
5.34631 703.000
5.36659 726.000
5.38687 716.000
5.40715 725.000
5.42743 756.000
5.44771 730.000
5.46799 657.000
5.48827 708.000
5.50855 737.000
5.52883 708.000
5.54911 746.000
5.56939 715.000
5.58967 633.000
5.60995 716.000
5.63023 635.000
5.65051 672.000
5.67079 678.000
5.69107 622.000
5.71135 668.000
5.73163 597.000
5.75191 587.000
5.77219 623.000
5.79247 594.000
5.81275 639.000
5.83303 576.000
5.85331 619.000
5.87359 608.000
5.89387 575.000
5.91415 624.000
5.93443 576.000
5.95471 560.000
5.97499 558.000
5.99527 584.000
6.01555 609.000
6.03583 598.000
6.05611 605.000
6.07639 598.000
6.09667 612.000
6.11695 541.000
6.13723 613.000
6.15751 585.000
6.17779 581.000
6.19807 610.000
6.21835 603.000
6.23863 619.000
6.25891 639.000
6.27919 640.000
6.29947 643.000
6.31975 555.000
6.34003 566.000
6.36031 697.000
6.38059 637.000
6.40087 674.000
6.42115 642.000
6.44143 697.000
6.46171 714.000
6.48199 829.000
6.50227 769.000
6.52255 906.000
6.54283 1029.000
6.56311 1086.000
6.58339 1300.000
6.60367 1429.000
6.62395 1693.000
6.64423 1952.000
6.66451 2400.000
6.68479 2948.000
6.70507 3457.000
6.72536 4210.000
6.74564 5001.000
6.76592 5683.000
6.78620 6062.000
6.80648 6272.000
6.82676 5960.000
6.84704 5417.000
6.86732 4610.000
6.88760 3676.000
6.90788 2858.000
6.92816 2040.000
6.94844 1558.000
6.96872 1223.000
6.98900 970.000
7.00928 852.000
7.02956 793.000
7.04984 729.000
7.07012 741.000
7.09040 680.000
7.11068 669.000
7.13096 675.000
7.15124 599.000
7.17152 580.000
7.19180 568.000
7.21208 516.000
7.23236 601.000
7.25264 573.000
7.27292 579.000
7.29320 581.000
7.31348 561.000
7.33376 556.000
7.35404 525.000
7.37432 508.000
7.39460 551.000
7.41488 510.000
7.43516 521.000
7.45544 514.000
7.47572 522.000
7.49600 456.000
7.51628 521.000
7.53656 511.000
7.55684 545.000
7.57712 543.000
7.59740 488.000
7.61768 489.000
7.63796 532.000
7.65824 450.000
7.67852 488.000
7.69880 490.000
7.71908 532.000
7.73936 500.000
7.75964 496.000
7.77992 481.000
7.80020 549.000
7.82048 535.000
7.84076 548.000
7.86104 555.000
7.88132 530.000
7.90160 509.000
7.92188 553.000
7.94216 542.000
7.96244 605.000
7.98272 631.000
8.00300 679.000
8.02328 684.000
8.04356 782.000
8.06384 800.000
8.08412 811.000
8.10440 988.000
8.12468 1100.000
8.14496 1205.000
8.16524 1381.000
8.18552 1599.000
8.20580 1899.000
8.22608 2234.000
8.24636 2762.000
8.26664 3265.000
8.28692 3896.000
8.30720 4678.000
8.32748 5288.000
8.34776 5877.000
8.36804 6040.000
8.38832 5807.000
8.40860 5167.000
8.42888 4265.000
8.44916 3333.000
8.46944 2500.000
8.48972 1877.000
8.51000 1412.000
8.53028 1182.000
8.55056 1026.000
8.57084 911.000
8.59112 828.000
8.61140 775.000
8.63168 744.000
8.65197 719.000
8.67225 691.000
8.69253 651.000
8.71281 620.000
8.73309 642.000
8.75337 596.000
8.77365 578.000
8.79393 559.000
8.81421 550.000
8.83449 562.000
8.85477 566.000
8.87505 536.000
8.89533 512.000
8.91561 532.000
8.93589 538.000
8.95617 560.000
8.97645 488.000
8.99673 518.000
9.01701 469.000
9.03729 483.000
9.05757 459.000
9.07785 480.000
9.09813 452.000
9.11841 409.000
9.13869 477.000
9.15897 482.000
9.17925 427.000
9.19953 435.000
9.21981 482.000
9.24009 518.000
9.26037 471.000
9.28065 509.000
9.30093 462.000
9.32121 440.000
9.34149 461.000
9.36177 428.000
9.38205 475.000
9.40233 429.000
9.42261 466.000
9.44289 402.000
9.46317 470.000
9.48345 441.000
9.50373 469.000
9.52401 472.000
9.54429 446.000
9.56457 451.000
9.58485 451.000
9.60513 421.000
9.62541 422.000
9.64569 459.000
9.66597 459.000
9.68625 472.000
9.70653 453.000
9.72681 406.000
9.74709 470.000
9.76737 411.000
9.78765 465.000
9.80793 435.000
9.82821 477.000
9.84849 427.000
9.86877 444.000
9.88905 474.000
9.90933 429.000
9.92961 413.000
9.94989 423.000
9.97017 461.000
9.99045 404.000
10.01073 464.000
10.03101 401.000
10.05129 480.000
10.07157 427.000
10.09185 413.000
10.11213 433.000
10.13241 452.000
10.15269 403.000
10.17297 448.000
10.19325 434.000
10.21353 436.000
10.23381 459.000
10.25409 455.000
10.27437 433.000
10.29465 453.000
10.31493 489.000
10.33521 497.000
10.35549 494.000
10.37577 540.000
10.39605 581.000
10.41633 606.000
10.43661 638.000
10.45689 704.000
10.47717 913.000
10.49745 942.000
10.51773 1070.000
10.53801 1217.000
10.55830 1177.000
10.57858 1132.000
10.59886 1035.000
10.61914 924.000
10.63942 731.000
10.65970 647.000
10.67998 633.000
10.70026 580.000
10.72054 558.000
10.74082 532.000
10.76110 508.000
10.78138 487.000
10.80166 500.000
10.82194 429.000
10.84222 432.000
10.86250 419.000
10.88278 424.000
10.90306 468.000
10.92334 408.000
10.94362 457.000
10.96390 412.000
10.98418 428.000
11.00446 433.000
11.02474 437.000
11.04502 394.000
11.06530 403.000
11.08558 371.000
11.10586 417.000
11.12614 414.000
11.14642 401.000
11.16670 405.000
11.18698 354.000
11.20726 403.000
11.22754 386.000
11.24782 401.000
11.26810 437.000
11.28838 385.000
11.30866 393.000
11.32894 371.000
11.34922 407.000
11.36950 415.000
11.38978 418.000
11.41006 384.000
11.43034 370.000
11.45062 371.000
11.47090 408.000
11.49118 398.000
11.51146 355.000
11.53174 398.000
11.55202 410.000
11.57230 385.000
11.59258 407.000
11.61286 352.000
11.63314 387.000
11.65342 370.000
11.67370 343.000
11.69398 397.000
11.71426 427.000
11.73454 345.000
11.75482 412.000
11.77510 420.000
11.79538 411.000
11.81566 380.000
11.83594 387.000
11.85622 392.000
11.87650 387.000
11.89678 412.000
11.91706 421.000
11.93734 363.000
11.95762 408.000
11.97790 391.000
11.99818 362.000
12.01846 373.000
12.03874 369.000
12.05902 365.000
12.07930 410.000
12.09958 380.000
12.11986 414.000
12.14014 382.000
12.16042 411.000
12.18070 364.000
12.20098 386.000
12.22126 394.000
12.24154 415.000
12.26182 383.000
12.28210 374.000
12.30238 381.000
12.32266 392.000
12.34294 421.000
12.36322 405.000
12.38350 400.000
12.40378 431.000
12.42406 369.000
12.44434 414.000
12.46463 364.000
12.48491 365.000
12.50519 402.000
12.52547 403.000
12.54575 455.000
12.56603 400.000
12.58631 362.000
12.60659 422.000
12.62687 399.000
12.64715 382.000
12.66743 401.000
12.68771 393.000
12.70799 385.000
12.72827 428.000
12.74855 390.000
12.76883 397.000
12.78911 409.000
12.80939 409.000
12.82967 398.000
12.84995 416.000
12.87023 412.000
12.89051 414.000
12.91079 405.000
12.93107 411.000
12.95135 413.000
12.97163 444.000
12.99191 488.000
13.01219 502.000
13.03247 472.000
13.05275 501.000
13.07303 590.000
13.09331 667.000
13.11359 735.000
13.13387 758.000
13.15415 863.000
13.17443 911.000
13.19471 947.000
13.21499 931.000
13.23527 918.000
13.25555 912.000
13.27583 874.000
13.29611 920.000
13.31639 992.000
13.33667 1051.000
13.35695 1014.000
13.37723 1065.000
13.39751 1054.000
13.41779 1135.000
13.43807 1108.000
13.45835 1194.000
13.47863 1315.000
13.49891 1432.000
13.51919 1605.000
13.53947 1620.000
13.55975 1662.000
13.58003 1550.000
13.60031 1455.000
13.62059 1277.000
13.64087 1129.000
13.66115 1087.000
13.68143 941.000
13.70171 881.000
13.72199 715.000
13.74227 662.000
13.76255 597.000
13.78283 554.000
13.80311 516.000
13.82339 509.000
13.84367 507.000
13.86395 503.000
13.88423 522.000
13.90451 439.000
13.92479 488.000
13.94507 441.000
13.96535 449.000
13.98563 444.000
14.00591 494.000
14.02619 444.000
14.04647 454.000
14.06675 463.000
14.08703 459.000
14.10731 472.000
14.12759 450.000
14.14787 450.000
14.16815 486.000
14.18843 520.000
14.20871 456.000
14.22899 431.000
14.24927 466.000
14.26955 471.000
14.28983 497.000
14.31011 487.000
14.33039 491.000
14.35067 539.000
14.37096 548.000
14.39124 563.000
14.41152 542.000
14.43180 594.000
14.45208 623.000
14.47236 667.000
14.49264 689.000
14.51292 801.000
14.53320 910.000
14.55348 1048.000
14.57376 1257.000
14.59404 1508.000
14.61432 1728.000
14.63460 1963.000
14.65488 2132.000
14.67516 2292.000
14.69544 2250.000
14.71572 1995.000
14.73600 1780.000
14.75628 1370.000
14.77656 1257.000
14.79684 1165.000
14.81712 1100.000
14.83740 1202.000
14.85768 1276.000
14.87796 1335.000
14.89824 1461.000
14.91852 1538.000
14.93880 1424.000
14.95908 1261.000
14.97936 1118.000
14.99964 914.000
15.01992 774.000
15.04020 712.000
15.06048 558.000
15.08076 641.000
15.10104 526.000
15.12132 555.000
15.14160 527.000
15.16188 532.000
15.18216 572.000
15.20244 486.000
15.22272 519.000
15.24300 494.000
15.26328 516.000
15.28356 470.000
15.30384 491.000
15.32412 479.000
15.34440 514.000
15.36468 503.000
15.38496 481.000
15.40524 498.000
15.42552 474.000
15.44580 535.000
15.46608 500.000
15.48636 496.000
15.50664 463.000
15.52692 524.000
15.54720 524.000
15.56748 498.000
15.58776 483.000
15.60804 473.000
15.62832 514.000
15.64860 515.000
15.66888 473.000
15.68916 449.000
15.70944 457.000
15.72972 462.000
15.75000 499.000
15.77028 515.000
15.79056 540.000
15.81084 570.000
15.83112 545.000
15.85140 581.000
15.87168 524.000
15.89196 555.000
15.91224 587.000
15.93252 590.000
15.95280 566.000
15.97308 578.000
15.99336 640.000
16.01364 644.000
16.03392 605.000
16.05420 712.000
16.07448 690.000
16.09476 696.000
16.11504 704.000
16.13532 823.000
16.15560 836.000
16.17588 978.000
16.19616 1058.000
16.21644 1249.000
16.23672 1471.000
16.25700 1676.000
16.27729 2066.000
16.29757 2331.000
16.31785 2545.000
16.33813 2931.000
16.35841 3211.000
16.37869 3234.000
16.39897 3150.000
16.41925 2913.000
16.43953 2743.000
16.45981 2389.000
16.48009 2124.000
16.50037 2030.000
16.52065 1867.000
16.54093 1857.000
16.56121 1832.000
16.58149 1941.000
16.60177 1926.000
16.62205 2029.000
16.64233 2078.000
16.66261 2097.000
16.68289 2191.000
16.70317 2394.000
16.72345 2511.000
16.74373 2554.000
16.76401 2781.000
16.78429 2843.000
16.80457 2894.000
16.82485 2648.000
16.84513 2377.000
16.86541 2207.000
16.88569 1869.000
16.90597 1882.000
16.92625 1921.000
16.94653 1950.000
16.96681 2043.000
16.98709 2295.000
17.00737 2570.000
17.02765 3201.000
17.04793 3638.000
17.06821 4065.000
17.08849 4551.000
17.10877 4806.000
17.12905 4924.000
17.14933 4552.000
17.16961 4107.000
17.18989 3604.000
17.21017 2843.000
17.23045 2303.000
17.25073 1926.000
17.27101 1584.000
17.29129 1443.000
17.31157 1233.000
17.33185 1148.000
17.35213 1043.000
17.37241 925.000
17.39269 937.000
17.41297 918.000
17.43325 805.000
17.45353 833.000
17.47381 839.000
17.49409 852.000
17.51437 798.000
17.53465 827.000
17.55493 809.000
17.57521 814.000
17.59549 816.000
17.61577 911.000
17.63605 845.000
17.65633 843.000
17.67661 889.000
17.69689 920.000
17.71717 967.000
17.73745 979.000
17.75773 1036.000
17.77801 1046.000
17.79829 1170.000
17.81857 1169.000
17.83885 1277.000
17.85913 1400.000
17.87941 1589.000
17.89969 1786.000
17.91997 2144.000
17.94025 2416.000
17.96053 2808.000
17.98081 3334.000
18.00109 3981.000
18.02137 4766.000
18.04165 5567.000
18.06193 6207.000
18.08221 6895.000
18.10249 7048.000
18.12277 6979.000
18.14305 6489.000
18.16333 5904.000
18.18362 4790.000
18.20390 4200.000
18.22418 3378.000
18.24446 2669.000
18.26474 2163.000
18.28502 2041.000
18.30530 1636.000
18.32558 1556.000
18.34586 1315.000
18.36614 1318.000
18.38642 1261.000
18.40670 1244.000
18.42698 1244.000
18.44726 1310.000
18.46754 1330.000
18.48782 1399.000
18.50810 1421.000
18.52838 1583.000
18.54866 1795.000
18.56894 1941.000
18.58922 2246.000
18.60950 2574.000
18.62978 2852.000
18.65006 3213.000
18.67034 3393.000
18.69062 3476.000
18.71090 3654.000
18.73118 3527.000
18.75146 3328.000
18.77174 2902.000
18.79202 2749.000
18.81230 2395.000
18.83258 2091.000
18.85286 1890.000
18.87314 1713.000
18.89342 1587.000
18.91370 1523.000
18.93398 1573.000
18.95426 1606.000
18.97454 1661.000
18.99482 1678.000
19.01510 1750.000
19.03538 1739.000
19.05566 1566.000
19.07594 1482.000
19.09622 1495.000
19.11650 1343.000
19.13678 1238.000
19.15706 1185.000
19.17734 1092.000
19.19762 1166.000
19.21790 1142.000
19.23818 1146.000
19.25846 1277.000
19.27874 1199.000
19.29902 1411.000
19.31930 1407.000
19.33958 1539.000
19.35986 1771.000
19.38014 2067.000
19.40042 2302.000
19.42070 2596.000
19.44098 2908.000
19.46126 3312.000
19.48154 3664.000
19.50182 3837.000
19.52210 3982.000
19.54238 3783.000
19.56266 3584.000
19.58294 3108.000
19.60322 2835.000
19.62350 2534.000
19.64378 2288.000
19.66406 2155.000
19.68434 2063.000
19.70462 1964.000
19.72490 2062.000
19.74518 2178.000
19.76546 2211.000
19.78574 2373.000
19.80602 2563.000
19.82630 2882.000
19.84658 3223.000
19.86686 3575.000
19.88714 3954.000
19.90742 4047.000
19.92770 4277.000
19.94798 3995.000
19.96826 3826.000
19.98854 3526.000
20.00882 3029.000
20.02910 2798.000
20.04938 2588.000
20.06966 2527.000
20.08995 2483.000
20.11023 2539.000
20.13051 2679.000
20.15079 2776.000
20.17107 2827.000
20.19135 3009.000
20.21163 3036.000
20.23191 3139.000
20.25219 3192.000
20.27247 3350.000
20.29275 3689.000
20.31303 3930.000
20.33331 4244.000
20.35359 4425.000
20.37387 4041.000
20.39415 3586.000
20.41443 3155.000
20.43471 2639.000
20.45499 2065.000
20.47527 1731.000
20.49555 1547.000
20.51583 1453.000
20.53611 1320.000
20.55639 1307.000
20.57667 1161.000
20.59695 1188.000
20.61723 1136.000
20.63751 1088.000
20.65779 1037.000
20.67807 1003.000
20.69835 987.000
20.71863 983.000
20.73891 960.000
20.75919 937.000
20.77947 1005.000
20.79975 1022.000
20.82003 1018.000
20.84031 1044.000
20.86059 1065.000
20.88087 1040.000
20.90115 1066.000
20.92143 1061.000
20.94171 1149.000
20.96199 1150.000
20.98227 1191.000
21.00255 1348.000
21.02283 1261.000
21.04311 1384.000
21.06339 1423.000
21.08367 1528.000
21.10395 1721.000
21.12423 1762.000
21.14451 1907.000
21.16479 2155.000
21.18507 2432.000
21.20535 2581.000
21.22563 2738.000
21.24591 3091.000
21.26619 3535.000
21.28647 3997.000
21.30675 4472.000
21.32703 5212.000
21.34731 5801.000
21.36759 6463.000
21.38787 7123.000
21.40815 7815.000
21.42843 8147.000
21.44871 8731.000
21.46899 9117.000
21.48927 9595.000
21.50955 9810.000
21.52983 10057.000
21.55011 10253.000
21.57039 10000.000
21.59067 9953.000
21.61095 9484.000
21.63123 8892.000
21.65151 8326.000
21.67179 7430.000
21.69207 6810.000
21.71235 6180.000
21.73263 5103.000
21.75291 4320.000
21.77319 3592.000
21.79347 3027.000
21.81375 2523.000
21.83403 2199.000
21.85431 1950.000
21.87459 1685.000
21.89487 1550.000
21.91515 1474.000
21.93543 1461.000
21.95571 1298.000
21.97599 1231.000
21.99628 1164.000
22.01656 1118.000
22.03684 1060.000
22.05712 1071.000
22.07740 1054.000
22.09768 1048.000
22.11796 906.000
22.13824 966.000
22.15852 999.000
22.17880 967.000
22.19908 961.000
22.21936 918.000
22.23964 994.000
22.25992 1032.000
22.28020 1071.000
22.30048 1036.000
22.32076 1087.000
22.34104 1105.000
22.36132 1154.000
22.38160 1268.000
22.40188 1337.000
22.42216 1306.000
22.44244 1399.000
22.46272 1468.000
22.48300 1514.000
22.50328 1567.000
22.52356 1544.000
22.54384 1527.000
22.56412 1421.000
22.58440 1349.000
22.60468 1241.000
22.62496 1230.000
22.64524 1126.000
22.66552 1135.000
22.68580 1142.000
22.70608 1049.000
22.72636 1152.000
22.74664 1161.000
22.76692 1267.000
22.78720 1294.000
22.80748 1299.000
22.82776 1409.000
22.84804 1474.000
22.86832 1517.000
22.88860 1545.000
22.90888 1568.000
22.92916 1589.000
22.94944 1487.000
22.96972 1433.000
22.99000 1448.000
23.01028 1427.000
23.03056 1408.000
23.05084 1258.000
23.07112 1217.000
23.09140 1138.000
23.11168 1118.000
23.13196 1053.000
23.15224 1068.000
23.17252 1024.000
23.19280 1018.000
23.21308 1038.000
23.23336 1103.000
23.25364 1154.000
23.27392 1210.000
23.29420 1336.000
23.31448 1416.000
23.33476 1561.000
23.35504 1790.000
23.37532 1848.000
23.39560 2051.000
23.41588 2215.000
23.43616 2511.000
23.45644 2667.000
23.47672 2916.000
23.49700 3011.000
23.51728 3221.000
23.53756 3201.000
23.55784 3218.000
23.57812 3149.000
23.59840 2909.000
23.61868 2685.000
23.63896 2467.000
23.65924 2206.000
23.67952 2015.000
23.69980 1919.000
23.72008 1820.000
23.74036 1761.000
23.76064 1622.000
23.78092 1552.000
23.80120 1539.000
23.82148 1421.000
23.84176 1455.000
23.86204 1335.000
23.88232 1315.000
23.90261 1159.000
23.92289 1106.000
23.94317 1057.000
23.96345 1021.000
23.98373 1049.000
24.00401 951.000
24.02429 938.000
24.04457 909.000
24.06485 932.000
24.08513 1009.000
24.10541 1008.000
24.12569 971.000
24.14597 1049.000
24.16625 1090.000
24.18653 1085.000
24.20681 1144.000
24.22709 1301.000
24.24737 1395.000
24.26765 1457.000
24.28793 1723.000
24.30821 1773.000
24.32849 1944.000
24.34877 2111.000
24.36905 2225.000
24.38933 2133.000
24.40961 2221.000
24.42989 2035.000
24.45017 1896.000
24.47045 1728.000
24.49073 1521.000
24.51101 1359.000
24.53129 1282.000
24.55157 1157.000
24.57185 1075.000
24.59213 1027.000
24.61241 1013.000
24.63269 1095.000
24.65297 1127.000
24.67325 1171.000
24.69353 1132.000
24.71381 1258.000
24.73409 1219.000
24.75437 1255.000
24.77465 1304.000
24.79493 1135.000
24.81521 1175.000
24.83549 1060.000
24.85577 949.000
24.87605 953.000
24.89633 968.000
24.91661 875.000
24.93689 917.000
24.95717 942.000
24.97745 970.000
24.99773 1019.000
25.01801 1093.000
25.03829 1129.000
25.05857 1233.000
25.07885 1342.000
25.09913 1371.000
25.11941 1451.000
25.13969 1621.000
25.15997 1708.000
25.18025 1767.000
25.20053 1824.000
25.22081 1783.000
25.24109 1850.000
25.26137 1747.000
25.28165 1612.000
25.30193 1565.000
25.32221 1479.000
25.34249 1447.000
25.36277 1488.000
25.38305 1362.000
25.40333 1402.000
25.42361 1375.000
25.44389 1425.000
25.46417 1332.000
25.48445 1375.000
25.50473 1324.000
25.52501 1186.000
25.54529 1151.000
25.56557 1136.000
25.58585 1067.000
25.60613 1011.000
25.62641 926.000
25.64669 860.000
25.66697 868.000
25.68725 848.000
25.70753 775.000
25.72781 868.000
25.74809 864.000
25.76837 883.000
25.78865 862.000
25.80893 991.000
25.82922 979.000
25.84950 1086.000
25.86978 1076.000
25.89006 1159.000
25.91034 1170.000
25.93062 1362.000
25.95090 1359.000
25.97118 1502.000
25.99146 1591.000
26.01174 1699.000
26.03202 1716.000
26.05230 1761.000
26.07258 1643.000
26.09286 1662.000
26.11314 1708.000
26.13342 1564.000
26.15370 1500.000
26.17398 1507.000
26.19426 1289.000
26.21454 1310.000
26.23482 1298.000
26.25510 1206.000
26.27538 1134.000
26.29566 1228.000
26.31594 1153.000
26.33622 1143.000
26.35650 1205.000
26.37678 1211.000
26.39706 1210.000
26.41734 1267.000
26.43762 1291.000
26.45790 1366.000
26.47818 1436.000
26.49846 1523.000
26.51874 1523.000
26.53902 1533.000
26.55930 1667.000
26.57958 1681.000
26.59986 1565.000
26.62014 1554.000
26.64042 1545.000
26.66070 1516.000
26.68098 1370.000
26.70126 1371.000
26.72154 1376.000
26.74182 1317.000
26.76210 1350.000
26.78238 1298.000
26.80266 1290.000
26.82294 1343.000
26.84322 1447.000
26.86350 1527.000
26.88378 1456.000
26.90406 1641.000
26.92434 1671.000
26.94462 1654.000
26.96490 1681.000
26.98518 1684.000
27.00546 1735.000
27.02574 1623.000
27.04602 1498.000
27.06630 1513.000
27.08658 1509.000
27.10686 1416.000
27.12714 1375.000
27.14742 1333.000
27.16770 1274.000
27.18798 1361.000
27.20826 1313.000
27.22854 1271.000
27.24882 1308.000
27.26910 1217.000
27.28938 1179.000
27.30966 1263.000
27.32994 1261.000
27.35022 1177.000
27.37050 1188.000
27.39078 1310.000
27.41106 1295.000
27.43134 1281.000
27.45162 1354.000
27.47190 1341.000
27.49218 1296.000
27.51246 1286.000
27.53274 1196.000
27.55302 1129.000
27.57330 1026.000
27.59358 947.000
27.61386 959.000
27.63414 881.000
27.65442 757.000
27.67470 786.000
27.69498 712.000
27.71526 661.000
27.73555 719.000
27.75583 668.000
27.77611 616.000
27.79639 605.000
27.81667 607.000
27.83695 594.000
27.85723 616.000
27.87751 622.000
27.89779 590.000
27.91807 571.000
27.93835 602.000
27.95863 591.000
27.97891 557.000
27.99919 627.000
28.01947 585.000
28.03975 614.000
28.06003 564.000
28.08031 601.000
28.10059 648.000
28.12087 655.000
28.14115 670.000
28.16143 700.000
28.18171 696.000
28.20199 717.000
28.22227 664.000
28.24255 778.000
28.26283 746.000
28.28311 822.000
28.30339 797.000
28.32367 839.000
28.34395 917.000
28.36423 945.000
28.38451 1021.000
28.40479 1061.000
28.42507 1108.000
28.44535 1135.000
28.46563 1137.000
28.48591 1194.000
28.50619 1176.000
28.52647 1163.000
28.54675 1169.000
28.56703 1136.000
28.58731 1168.000
28.60759 1058.000
28.62787 1012.000
28.64815 1044.000
28.66843 980.000
28.68871 902.000
28.70899 883.000
28.72927 854.000
28.74955 796.000
28.76983 810.000
28.79011 860.000
28.81039 832.000
28.83067 787.000
28.85095 803.000
28.87123 869.000
28.89151 829.000
28.91179 929.000
28.93207 941.000
28.95235 969.000
28.97263 1007.000
28.99291 955.000
29.01319 1017.000
29.03347 1050.000
29.05375 1091.000
29.07403 1100.000
29.09431 1109.000
29.11459 1050.000
29.13487 1022.000
29.15515 1048.000
29.17543 952.000
29.19571 969.000
29.21599 993.000
29.23627 918.000
29.25655 930.000
29.27683 942.000
29.29711 911.000
29.31739 926.000
29.33767 969.000
29.35795 965.000
29.37823 927.000
29.39851 982.000
29.41879 944.000
29.43907 914.000
29.45935 921.000
29.47963 858.000
29.49991 887.000
29.52019 960.000
29.54047 927.000
29.56075 868.000
29.58103 883.000
29.60131 917.000
29.62159 891.000
29.64188 962.000
29.66216 975.000
29.68244 923.000
29.70272 967.000
29.72300 988.000
29.74328 1027.000
29.76356 1047.000
29.78384 1091.000
29.80412 1029.000
29.82440 1042.000
29.84468 1020.000
29.86496 1049.000
29.88524 1042.000
29.90552 1061.000
29.92580 1085.000
29.94608 1026.000
29.96636 1050.000
29.98664 967.000
30.00692 964.000
30.02720 994.000
30.04748 960.000
30.06776 992.000
30.08804 975.000
30.10832 931.000
30.12860 922.000
30.14888 832.000
30.16916 807.000
30.18944 815.000
30.20972 775.000
30.23000 743.000
30.25028 751.000
30.27056 814.000
30.29084 731.000
30.31112 773.000
30.33140 861.000
30.35168 809.000
30.37196 828.000
30.39224 872.000
30.41252 831.000
30.43280 847.000
30.45308 814.000
30.47336 807.000
30.49364 792.000
30.51392 744.000
30.53420 686.000
30.55448 698.000
30.57476 629.000
30.59504 579.000
30.61532 573.000
30.63560 582.000
30.65588 564.000
30.67616 550.000
30.69644 545.000
30.71672 493.000
30.73700 522.000
30.75728 554.000
30.77756 543.000
30.79784 558.000
30.81812 553.000
30.83840 550.000
30.85868 578.000
30.87896 564.000
30.89924 546.000
30.91952 578.000
30.93980 617.000
30.96008 605.000
30.98036 656.000
31.00064 670.000
31.02092 641.000
31.04120 717.000
31.06148 714.000
31.08176 806.000
31.10204 780.000
31.12232 679.000
31.14260 788.000
31.16288 740.000
31.18316 745.000
31.20344 748.000
31.22372 748.000
31.24400 703.000
31.26428 651.000
31.28456 648.000
31.30484 604.000
31.32512 610.000
31.34540 580.000
31.36568 595.000
31.38596 571.000
31.40624 556.000
31.42652 548.000
31.44680 561.000
31.46708 567.000
31.48736 581.000
31.50764 610.000
31.52792 569.000
31.54821 585.000
31.56849 571.000
31.58877 555.000
31.60905 611.000
31.62933 578.000
31.64961 629.000
31.66989 596.000
31.69017 679.000
31.71045 642.000
31.73073 668.000
31.75101 670.000
31.77129 699.000
31.79157 696.000
31.81185 626.000
31.83213 682.000
31.85241 690.000
31.87269 699.000
31.89297 686.000
31.91325 719.000
31.93353 688.000
31.95381 703.000
31.97409 727.000
31.99437 747.000
32.01465 700.000
32.03493 662.000
32.05521 691.000
32.07549 644.000
32.09577 653.000
32.11605 646.000
32.13633 610.000
32.15661 631.000
32.17689 683.000
32.19717 634.000
32.21745 643.000
32.23773 616.000
32.25801 589.000
32.27829 608.000
32.29857 567.000
32.31885 577.000
32.33913 571.000
32.35941 584.000
32.37969 578.000
32.39997 577.000
32.42025 556.000
32.44053 571.000
32.46081 537.000
32.48109 530.000
32.50137 512.000
32.52165 529.000
32.54193 502.000
32.56221 529.000
32.58249 515.000
32.60277 481.000
32.62305 516.000
32.64333 545.000
32.66361 517.000
32.68389 542.000
32.70417 609.000
32.72445 541.000
32.74473 569.000
32.76501 596.000
32.78529 586.000
32.80557 601.000
32.82585 633.000
32.84613 617.000
32.86641 571.000
32.88669 634.000
32.90697 637.000
32.92725 659.000
32.94753 711.000
32.96781 670.000
32.98809 733.000
33.00837 634.000
33.02865 717.000
33.04893 677.000
33.06921 657.000
33.08949 666.000
33.10977 680.000
33.13005 687.000
33.15033 651.000
33.17061 657.000
33.19089 702.000
33.21117 690.000
33.23145 706.000
33.25173 695.000
33.27201 774.000
33.29229 707.000
33.31257 813.000
33.33285 780.000
33.35313 820.000
33.37341 779.000
33.39369 722.000
33.41397 723.000
33.43425 704.000
33.45454 684.000
33.47482 657.000
33.49510 615.000
33.51538 578.000
33.53566 586.000
33.55594 562.000
33.57622 589.000
33.59650 573.000
33.61678 584.000
33.63706 526.000
33.65734 526.000
33.67762 508.000
33.69790 491.000
33.71818 579.000
33.73846 550.000
33.75874 513.000
33.77902 530.000
33.79930 514.000
33.81958 520.000
33.83986 545.000
33.86014 556.000
33.88042 564.000
33.90070 567.000
33.92098 603.000
33.94126 638.000
33.96154 650.000
33.98182 584.000
34.00210 654.000
34.02238 663.000
34.04266 626.000
34.06294 673.000
34.08322 645.000
34.10350 678.000
34.12378 681.000
34.14406 676.000
34.16434 700.000
34.18462 688.000
34.20490 686.000
34.22518 699.000
34.24546 653.000
34.26574 698.000
34.28602 724.000
34.30630 803.000
34.32658 746.000
34.34686 781.000
34.36714 821.000
34.38742 839.000
34.40770 853.000
34.42798 877.000
34.44826 936.000
34.46854 985.000
34.48882 993.000
34.50910 1084.000
34.52938 1112.000
34.54966 1116.000
34.56994 1214.000
34.59022 1166.000
34.61050 1173.000
34.63078 1084.000
34.65106 1108.000
34.67134 1020.000
34.69162 1016.000
34.71190 955.000
34.73218 918.000
34.75246 894.000
34.77274 860.000
34.79302 836.000
34.81330 811.000
34.83358 835.000
34.85386 837.000
34.87414 876.000
34.89442 905.000
34.91470 911.000
34.93498 915.000
34.95526 923.000
34.97554 899.000
34.99582 864.000
35.01610 828.000
35.03638 817.000
35.05666 835.000
35.07694 721.000
35.09722 749.000
35.11750 729.000
35.13778 704.000
35.15806 701.000
35.17834 722.000
35.19862 671.000
35.21890 653.000
35.23918 620.000
35.25946 596.000
35.27974 600.000
35.30002 585.000
35.32030 598.000
35.34058 598.000
35.36087 564.000
35.38115 588.000
35.40143 648.000
35.42171 610.000
35.44199 637.000
35.46227 636.000
35.48255 617.000
35.50283 650.000
35.52311 626.000
35.54339 607.000
35.56367 640.000
35.58395 626.000
35.60423 615.000
35.62451 625.000
35.64479 627.000
35.66507 574.000
35.68535 578.000
35.70563 589.000
35.72591 542.000
35.74619 532.000
35.76647 566.000
35.78675 525.000
35.80703 524.000
35.82731 517.000
35.84759 481.000
35.86787 489.000
35.88815 475.000
35.90843 467.000
35.92871 463.000
35.94899 487.000
35.96927 522.000
35.98955 512.000
36.00983 521.000
36.03011 478.000
36.05039 517.000
36.07067 521.000
36.09095 534.000
36.11123 576.000
36.13151 554.000
36.15179 550.000
36.17207 562.000
36.19235 621.000
36.21263 612.000
36.23291 608.000
36.25319 600.000
36.27347 608.000
36.29375 579.000
36.31403 611.000
36.33431 580.000
36.35459 616.000
36.37487 629.000
36.39515 677.000
36.41543 597.000
36.43571 649.000
36.45599 673.000
36.47627 689.000
36.49655 671.000
36.51683 751.000
36.53711 726.000
36.55739 714.000
36.57767 808.000
36.59795 779.000
36.61823 823.000
36.63851 785.000
36.65879 841.000
36.67907 914.000
36.69935 925.000
36.71963 875.000
36.73991 902.000
36.76019 881.000
36.78047 817.000
36.80075 890.000
36.82103 867.000
36.84131 806.000
36.86159 797.000
36.88187 747.000
36.90215 736.000
36.92243 746.000
36.94271 745.000
36.96299 729.000
36.98327 691.000
37.00355 643.000
37.02383 675.000
37.04411 660.000
37.06439 667.000
37.08467 668.000
37.10495 643.000
37.12523 676.000
37.14551 688.000
37.16579 647.000
37.18607 602.000
37.20635 641.000
37.22663 658.000
37.24691 632.000
37.26720 661.000
37.28748 583.000
37.30776 616.000
37.32804 568.000
37.34832 560.000
37.36860 590.000
37.38888 598.000
37.40916 548.000
37.42944 586.000
37.44972 528.000
37.47000 578.000
37.49028 545.000
37.51056 599.000
37.53084 576.000
37.55112 577.000
37.57140 571.000
37.59168 575.000
37.61196 576.000
37.63224 635.000
37.65252 561.000
37.67280 614.000
37.69308 620.000
37.71336 623.000
37.73364 633.000
37.75392 582.000
37.77420 633.000
37.79448 628.000
37.81476 634.000
37.83504 651.000
37.85532 703.000
37.87560 657.000
37.89588 677.000
37.91616 720.000
37.93644 715.000
37.95672 695.000
37.97700 736.000
37.99728 747.000
38.01756 747.000
38.03784 729.000
38.05812 723.000
38.07840 715.000
38.09868 684.000
38.11896 670.000
38.13924 662.000
38.15952 632.000
38.17980 613.000
38.20008 605.000
38.22036 579.000
38.24064 603.000
38.26092 530.000
38.28120 588.000
38.30148 567.000
38.32176 601.000
38.34204 582.000
38.36232 580.000
38.38260 608.000
38.40288 537.000
38.42316 625.000
38.44344 567.000
38.46372 559.000
38.48400 566.000
38.50428 584.000
38.52456 580.000
38.54484 587.000
38.56512 558.000
38.58540 554.000
38.60568 551.000
38.62596 526.000
38.64624 501.000
38.66652 543.000
38.68680 527.000
38.70708 519.000
38.72736 491.000
38.74764 477.000
38.76792 486.000
38.78820 519.000
38.80848 539.000
38.82876 469.000
38.84904 541.000
38.86932 523.000
38.88960 521.000
38.90988 504.000
38.93016 462.000
38.95044 496.000
38.97072 486.000
38.99100 472.000
39.01128 521.000
39.03156 527.000
39.05184 529.000
39.07212 545.000
39.09240 542.000
39.11268 544.000
39.13296 568.000
39.15324 528.000
39.17353 567.000
39.19381 583.000
39.21409 551.000
39.23437 591.000
39.25465 597.000
39.27493 548.000
39.29521 538.000
39.31549 569.000
39.33577 584.000
39.35605 561.000
39.37633 534.000
39.39661 590.000
39.41689 604.000
39.43717 587.000
39.45745 609.000
39.47773 595.000
39.49801 587.000
39.51829 612.000
39.53857 633.000
39.55885 616.000
39.57913 661.000
39.59941 625.000
39.61969 677.000
39.63997 700.000
39.66025 627.000
39.68053 640.000
39.70081 669.000
39.72109 619.000
39.74137 601.000
39.76165 558.000
39.78193 622.000
39.80221 604.000
39.82249 628.000
39.84277 590.000
39.86305 600.000
39.88333 631.000
39.90361 628.000
39.92389 636.000
39.94417 610.000
39.96445 677.000
39.98473 654.000
40.00501 681.000
40.02529 645.000
40.04557 740.000
40.06585 729.000
40.08613 686.000
40.10641 678.000
40.12669 719.000
40.14697 753.000
40.16725 765.000
40.18753 687.000
40.20781 787.000
40.22809 800.000
40.24837 750.000
40.26865 749.000
40.28893 780.000
40.30921 785.000
40.32949 775.000
40.34977 756.000
40.37005 769.000
40.39033 757.000
40.41061 721.000
40.43089 668.000
40.45117 718.000
40.47145 698.000
40.49173 700.000
40.51201 654.000
40.53229 626.000
40.55257 651.000
40.57285 672.000
40.59313 584.000
40.61341 586.000
40.63369 530.000
40.65397 626.000
40.67425 555.000
40.69453 581.000
40.71481 578.000
40.73509 583.000
40.75537 538.000
40.77565 490.000
40.79593 508.000
40.81621 560.000
40.83649 495.000
40.85677 538.000
40.87705 493.000
40.89733 529.000
40.91761 559.000
40.93789 561.000
40.95817 550.000
40.97845 554.000
40.99873 521.000
41.01901 603.000
41.03929 540.000
41.05957 532.000
41.07986 561.000
41.10014 578.000
41.12042 527.000
41.14070 559.000
41.16098 534.000
41.18126 565.000
41.20154 550.000
41.22182 591.000
41.24210 604.000
41.26238 636.000
41.28266 596.000
41.30294 597.000
41.32322 603.000
41.34350 629.000
41.36378 720.000
41.38406 688.000
41.40434 664.000
41.42462 636.000
41.44490 616.000
41.46518 728.000
41.48546 739.000
41.50574 703.000
41.52602 650.000
41.54630 659.000
41.56658 693.000
41.58686 662.000
41.60714 693.000
41.62742 697.000
41.64770 647.000
41.66798 714.000
41.68826 734.000
41.70854 758.000
41.72882 783.000
41.74910 683.000
41.76938 748.000
41.78966 707.000
41.80994 690.000
41.83022 681.000
41.85050 664.000
41.87078 644.000
41.89106 639.000
41.91134 655.000
41.93162 635.000
41.95190 589.000
41.97218 570.000
41.99246 525.000
42.01274 531.000
42.03302 546.000
42.05330 477.000
42.07358 485.000
42.09386 515.000
42.11414 481.000
42.13442 482.000
42.15470 480.000
42.17498 481.000
42.19526 466.000
42.21554 514.000
42.23582 495.000
42.25610 508.000
42.27638 454.000
42.29666 493.000
42.31694 505.000
42.33722 507.000
42.35750 469.000
42.37778 482.000
42.39806 475.000
42.41834 495.000
42.43862 450.000
42.45890 481.000
42.47918 496.000
42.49946 460.000
42.51974 443.000
42.54002 469.000
42.56030 491.000
42.58058 473.000
42.60086 487.000
42.62114 440.000
42.64142 439.000
42.66170 467.000
42.68198 439.000
42.70226 434.000
42.72254 474.000
42.74282 480.000
42.76310 464.000
42.78338 462.000
42.80366 501.000
42.82394 504.000
42.84422 461.000
42.86450 432.000
42.88478 489.000
42.90506 506.000
42.92534 475.000
42.94562 501.000
42.96590 484.000
42.98619 465.000
43.00647 500.000
43.02675 522.000
43.04703 492.000
43.06731 492.000
43.08759 534.000
43.10787 547.000
43.12815 546.000
43.14843 552.000
43.16871 534.000
43.18899 580.000
43.20927 654.000
43.22955 616.000
43.24983 656.000
43.27011 640.000
43.29039 630.000
43.31067 579.000
43.33095 702.000
43.35123 660.000
43.37151 677.000
43.39179 612.000
43.41207 705.000
43.43235 660.000
43.45263 658.000
43.47291 647.000
43.49319 624.000
43.51347 614.000
43.53375 625.000
43.55403 609.000
43.57431 640.000
43.59459 625.000
43.61487 591.000
43.63515 586.000
43.65543 640.000
43.67571 635.000
43.69599 634.000
43.71627 654.000
43.73655 643.000
43.75683 601.000
43.77711 639.000
43.79739 654.000
43.81767 669.000
43.83795 630.000
43.85823 652.000
43.87851 639.000
43.89879 660.000
43.91907 646.000
43.93935 670.000
43.95963 687.000
43.97991 663.000
44.00019 677.000
44.02047 653.000
44.04075 642.000
44.06103 664.000
44.08131 658.000
44.10159 667.000
44.12187 611.000
44.14215 617.000
44.16243 581.000
44.18271 599.000
44.20299 612.000
44.22327 626.000
44.24355 571.000
44.26383 555.000
44.28411 578.000
44.30439 511.000
44.32467 565.000
44.34495 518.000
44.36523 514.000
44.38551 574.000
44.40579 489.000
44.42607 516.000
44.44635 500.000
44.46663 542.000
44.48691 487.000
44.50719 502.000
44.52747 501.000
44.54775 505.000
44.56803 484.000
44.58831 499.000
44.60859 523.000
44.62887 479.000
44.64915 505.000
44.66943 519.000
44.68971 515.000
44.70999 516.000
44.73027 501.000
44.75055 561.000
44.77083 524.000
44.79111 543.000
44.81139 539.000
44.83167 543.000
44.85195 532.000
44.87223 498.000
44.89251 541.000
44.91280 486.000
44.93308 565.000
44.95336 507.000
44.97364 551.000
44.99392 523.000
45.01420 545.000
45.03448 538.000
45.05476 514.000
45.07504 521.000
45.09532 495.000
45.11560 521.000
45.13588 507.000
45.15616 498.000
45.17644 469.000
45.19672 567.000
45.21700 492.000
45.23728 483.000
45.25756 498.000
45.27784 466.000
45.29812 516.000
45.31840 453.000
45.33868 491.000
45.35896 511.000
45.37924 493.000
45.39952 478.000
45.41980 476.000
45.44008 522.000
45.46036 515.000
45.48064 519.000
45.50092 531.000
45.52120 481.000
45.54148 511.000
45.56176 535.000
45.58204 569.000
45.60232 530.000
45.62260 540.000
45.64288 555.000
45.66316 548.000
45.68344 509.000
45.70372 529.000
45.72400 547.000
45.74428 537.000
45.76456 535.000
45.78484 557.000
45.80512 516.000
45.82540 570.000
45.84568 509.000
45.86596 551.000
45.88624 558.000
45.90652 515.000
45.92680 508.000
45.94708 506.000
45.96736 545.000
45.98764 516.000
46.00792 524.000
46.02820 502.000
46.04848 487.000
46.06876 519.000
46.08904 497.000
46.10932 476.000
46.12960 495.000
46.14988 502.000
46.17016 513.000
46.19044 521.000
46.21072 561.000
46.23100 498.000
46.25128 513.000
46.27156 534.000
46.29184 488.000
46.31212 602.000
46.33240 515.000
46.35268 516.000
46.37296 560.000
46.39324 555.000
46.41352 583.000
46.43380 554.000
46.45408 549.000
46.47436 542.000
46.49464 554.000
46.51492 530.000
46.53520 549.000
46.55548 569.000
46.57576 552.000
46.59604 583.000
46.61632 553.000
46.63660 566.000
46.65688 567.000
46.67716 541.000
46.69744 551.000
46.71772 551.000
46.73800 536.000
46.75828 489.000
46.77856 503.000
46.79884 523.000
46.81913 511.000
46.83941 548.000
46.85969 535.000
46.87997 527.000
46.90025 468.000
46.92053 533.000
46.94081 522.000
46.96109 472.000
46.98137 474.000
47.00165 514.000
47.02193 503.000
47.04221 478.000
47.06249 513.000
47.08277 526.000
47.10305 534.000
47.12333 508.000
47.14361 565.000
47.16389 499.000
47.18417 510.000
47.20445 482.000
47.22473 570.000
47.24501 559.000
47.26529 540.000
47.28557 576.000
47.30585 551.000
47.32613 581.000
47.34641 621.000
47.36669 588.000
47.38697 613.000
47.40725 554.000
47.42753 596.000
47.44781 569.000
47.46809 509.000
47.48837 584.000
47.50865 573.000
47.52893 536.000
47.54921 565.000
47.56949 571.000
47.58977 524.000
47.61005 540.000
47.63033 511.000
47.65061 547.000
47.67089 542.000
47.69117 492.000
47.71145 497.000
47.73173 531.000
47.75201 546.000
47.77229 521.000
47.79257 532.000
47.81285 563.000
47.83313 578.000
47.85341 497.000
47.87369 482.000
47.89397 512.000
47.91425 495.000
47.93453 509.000
47.95481 473.000
47.97509 508.000
47.99537 520.000
48.01565 500.000
48.03593 492.000
48.05621 493.000
48.07649 495.000
48.09677 479.000
48.11705 432.000
48.13733 460.000
48.15761 466.000
48.17789 487.000
48.19817 464.000
48.21845 443.000
48.23873 451.000
48.25901 431.000
48.27929 443.000
48.29957 442.000
48.31985 464.000
48.34013 465.000
48.36041 463.000
48.38069 443.000
48.40097 454.000
48.42125 434.000
48.44153 474.000
48.46181 486.000
48.48209 425.000
48.50237 429.000
48.52265 467.000
48.54293 450.000
48.56321 467.000
48.58349 463.000
48.60377 466.000
48.62405 450.000
48.64433 456.000
48.66461 415.000
48.68489 448.000
48.70517 448.000
48.72546 458.000
48.74574 426.000
48.76602 419.000
48.78630 438.000
48.80658 451.000
48.82686 415.000
48.84714 415.000
48.86742 425.000
48.88770 436.000
48.90798 399.000
48.92826 423.000
48.94854 391.000
48.96882 406.000
48.98910 403.000
49.00938 420.000
49.02966 409.000
49.04994 425.000
49.07022 442.000
49.09050 434.000
49.11078 446.000
49.13106 421.000
49.15134 435.000
49.17162 431.000
49.19190 422.000
49.21218 440.000
49.23246 431.000
49.25274 433.000
49.27302 425.000
49.29330 408.000
49.31358 412.000
49.33386 452.000
49.35414 442.000
49.37442 463.000
49.39470 453.000
49.41498 467.000
49.43526 432.000
49.45554 478.000
49.47582 460.000
49.49610 474.000
49.51638 441.000
49.53666 466.000
49.55694 479.000
49.57722 413.000
49.59750 465.000
49.61778 422.000
49.63806 478.000
49.65834 454.000
49.67862 441.000
49.69890 443.000
49.71918 472.000
49.73946 428.000
49.75974 471.000
49.78002 445.000
49.80030 458.000
49.82058 445.000
49.84086 441.000
49.86114 478.000
49.88142 443.000
49.90170 421.000
49.92198 451.000
49.94226 455.000
49.96254 452.000
49.98282 455.000
50.00310 503.000
