5.00155 800.000
5.02183 827.000
5.04211 786.000
5.06239 807.000
5.08267 818.000
5.10295 819.000
5.12323 765.000
5.14351 740.000
5.16379 711.000
5.18407 824.000
5.20435 771.000
5.22463 773.000
5.24491 721.000
5.26519 752.000
5.28547 732.000
5.30575 729.000
5.32603 736.000
5.34631 754.000
5.36659 667.000
5.38687 719.000
5.40715 596.000
5.42743 701.000
5.44771 704.000
5.46799 691.000
5.48827 632.000
5.50855 652.000
5.52883 636.000
5.54911 656.000
5.56939 658.000
5.58967 593.000
5.60995 603.000
5.63023 609.000
5.65051 606.000
5.67079 647.000
5.69107 612.000
5.71135 637.000
5.73163 572.000
5.75191 556.000
5.77219 602.000
5.79247 579.000
5.81275 624.000
5.83303 608.000
5.85331 548.000
5.87359 538.000
5.89387 602.000
5.91415 530.000
5.93443 558.000
5.95471 524.000
5.97499 544.000
5.99527 576.000
6.01555 556.000
6.03583 549.000
6.05611 537.000
6.07639 548.000
6.09667 571.000
6.11695 501.000
6.13723 546.000
6.15751 543.000
6.17779 523.000
6.19807 507.000
6.21835 547.000
6.23863 546.000
6.25891 565.000
6.27919 624.000
6.29947 665.000
6.31975 720.000
6.34003 760.000
6.36031 776.000
6.38059 921.000
6.40087 962.000
6.42115 956.000
6.44143 977.000
6.46171 898.000
6.48199 861.000
6.50227 724.000
6.52255 680.000
6.54283 677.000
6.56311 575.000
6.58339 552.000
6.60367 583.000
6.62395 638.000
6.64423 650.000
6.66451 621.000
6.68479 762.000
6.70507 833.000
6.72536 1032.000
6.74564 1039.000
6.76592 1233.000
6.78620 1397.000
6.80648 1371.000
6.82676 1432.000
6.84704 1407.000
6.86732 1264.000
6.88760 1108.000
6.90788 976.000
6.92816 779.000
6.94844 647.000
6.96872 517.000
6.98900 501.000
7.00928 506.000
7.02956 439.000
7.04984 475.000
7.07012 481.000
7.09040 413.000
7.11068 455.000
7.13096 429.000
7.15124 435.000
7.17152 442.000
7.19180 391.000
7.21208 427.000
7.23236 403.000
7.25264 435.000
7.27292 452.000
7.29320 411.000
7.31348 462.000
7.33376 368.000
7.35404 416.000
7.37432 371.000
7.39460 415.000
7.41488 418.000
7.43516 374.000
7.45544 414.000
7.47572 355.000
7.49600 400.000
7.51628 390.000
7.53656 430.000
7.55684 444.000
7.57712 367.000
7.59740 381.000
7.61768 407.000
7.63796 420.000
7.65824 419.000
7.67852 408.000
7.69880 399.000
7.71908 460.000
7.73936 454.000
7.75964 403.000
7.77992 463.000
7.80020 428.000
7.82048 448.000
7.84076 423.000
7.86104 399.000
7.88132 406.000
7.90160 459.000
7.92188 416.000
7.94216 411.000
7.96244 423.000
7.98272 454.000
8.00300 428.000
8.02328 429.000
8.04356 423.000
8.06384 445.000
8.08412 453.000
8.10440 477.000
8.12468 512.000
8.14496 487.000
8.16524 518.000
8.18552 545.000
8.20580 546.000
8.22608 677.000
8.24636 716.000
8.26664 862.000
8.28692 996.000
8.30720 1097.000
8.32748 1411.000
8.34776 1492.000
8.36804 1695.000
8.38832 1834.000
8.40860 1845.000
8.42888 1677.000
8.44916 1669.000
8.46944 1640.000
8.48972 1703.000
8.51000 1916.000
8.53028 2269.000
8.55056 2820.000
8.57084 3499.000
8.59112 4400.000
8.61140 5004.000
8.63168 5323.000
8.65197 5591.000
8.67225 5315.000
8.69253 4538.000
8.71281 3401.000
8.73309 2652.000
8.75337 1939.000
8.77365 1552.000
8.79393 1117.000
8.81421 961.000
8.83449 815.000
8.85477 768.000
8.87505 725.000
8.89533 635.000
8.91561 670.000
8.93589 623.000
8.95617 620.000
8.97645 573.000
8.99673 571.000
9.01701 570.000
9.03729 587.000
9.05757 572.000
9.07785 527.000
9.09813 532.000
9.11841 526.000
9.13869 561.000
9.15897 529.000
9.17925 589.000
9.19953 631.000
9.21981 614.000
9.24009 621.000
9.26037 646.000
9.28065 686.000
9.30093 778.000
9.32121 885.000
9.34149 989.000
9.36177 1166.000
9.38205 1458.000
9.40233 1780.000
9.42261 2192.000
9.44289 2725.000
9.46317 2968.000
9.48345 3427.000
9.50373 3236.000
9.52401 3145.000
9.54429 2651.000
9.56457 2152.000
9.58485 1709.000
9.60513 1363.000
9.62541 1192.000
9.64569 1009.000
9.66597 959.000
9.68625 1120.000
9.70653 1214.000
9.72681 1374.000
9.74709 1683.000
9.76737 1952.000
9.78765 2415.000
9.80793 3122.000
9.82821 3514.000
9.84849 3986.000
9.86877 4215.000
9.88905 4063.000
9.90933 3536.000
9.92961 2769.000
9.94989 2090.000
9.97017 1539.000
9.99045 1235.000
10.01073 1018.000
10.03101 874.000
10.05129 816.000
10.07157 692.000
10.09185 706.000
10.11213 669.000
10.13241 605.000
10.15269 536.000
10.17297 525.000
10.19325 532.000
10.21353 492.000
10.23381 468.000
10.25409 500.000
10.27437 524.000
10.29465 469.000
10.31493 534.000
10.33521 537.000
10.35549 572.000
10.37577 543.000
10.39605 545.000
10.41633 585.000
10.43661 540.000
10.45689 585.000
10.47717 617.000
10.49745 593.000
10.51773 691.000
10.53801 621.000
10.55830 630.000
10.57858 648.000
10.59886 605.000
10.61914 576.000
10.63942 520.000
10.65970 540.000
10.67998 541.000
10.70026 508.000
10.72054 553.000
10.74082 595.000
10.76110 616.000
10.78138 703.000
10.80166 758.000
10.82194 972.000
10.84222 1117.000
10.86250 1372.000
10.88278 1781.000
10.90306 2083.000
10.92334 2331.000
10.94362 2646.000
10.96390 2490.000
10.98418 2374.000
11.00446 2035.000
11.02474 1551.000
11.04502 1124.000
11.06530 961.000
11.08558 727.000
11.10586 626.000
11.12614 604.000
11.14642 552.000
11.16670 507.000
11.18698 460.000
11.20726 476.000
11.22754 468.000
11.24782 434.000
11.26810 400.000
11.28838 440.000
11.30866 436.000
11.32894 417.000
11.34922 402.000
11.36950 391.000
11.38978 422.000
11.41006 415.000
11.43034 382.000
11.45062 419.000
11.47090 398.000
11.49118 402.000
11.51146 400.000
11.53174 390.000
11.55202 394.000
11.57230 386.000
11.59258 404.000
11.61286 405.000
11.63314 386.000
11.65342 377.000
11.67370 412.000
11.69398 412.000
11.71426 402.000
11.73454 371.000
11.75482 417.000
11.77510 382.000
11.79538 368.000
11.81566 391.000
11.83594 414.000
11.85622 380.000
11.87650 384.000
11.89678 378.000
11.91706 393.000
11.93734 379.000
11.95762 391.000
11.97790 387.000
11.99818 368.000
12.01846 396.000
12.03874 342.000
12.05902 376.000
12.07930 390.000
12.09958 384.000
12.11986 365.000
12.14014 378.000
12.16042 400.000
12.18070 415.000
12.20098 406.000
12.22126 400.000
12.24154 384.000
12.26182 406.000
12.28210 425.000
12.30238 452.000
12.32266 428.000
12.34294 438.000
12.36322 437.000
12.38350 451.000
12.40378 482.000
12.42406 420.000
12.44434 398.000
12.46463 375.000
12.48491 402.000
12.50519 391.000
12.52547 396.000
12.54575 399.000
12.56603 415.000
12.58631 389.000
12.60659 374.000
12.62687 377.000
12.64715 369.000
12.66743 388.000
12.68771 388.000
12.70799 403.000
12.72827 408.000
12.74855 430.000
12.76883 374.000
12.78911 368.000
12.80939 397.000
12.82967 425.000
12.84995 472.000
12.87023 451.000
12.89051 429.000
12.91079 500.000
12.93107 518.000
12.95135 553.000
12.97163 519.000
12.99191 621.000
13.01219 632.000
13.03247 574.000
13.05275 595.000
13.07303 574.000
13.09331 550.000
13.11359 592.000
13.13387 581.000
13.15415 681.000
13.17443 794.000
13.19471 842.000
13.21499 897.000
13.23527 1001.000
13.25555 1056.000
13.27583 1034.000
13.29611 1026.000
13.31639 989.000
13.33667 926.000
13.35695 798.000
13.37723 705.000
13.39751 730.000
13.41779 686.000
13.43807 698.000
13.45835 674.000
13.47863 710.000
13.49891 780.000
13.51919 892.000
13.53947 998.000
13.55975 1200.000
13.58003 1305.000
13.60031 1595.000
13.62059 1654.000
13.64087 2023.000
13.66115 2329.000
13.68143 2579.000
13.70171 2735.000
13.72199 2947.000
13.74227 2847.000
13.76255 2651.000
13.78283 2657.000
13.80311 2543.000
13.82339 2347.000
13.84367 2097.000
13.86395 1657.000
13.88423 1423.000
13.90451 1094.000
13.92479 880.000
13.94507 719.000
13.96535 651.000
13.98563 621.000
14.00591 544.000
14.02619 529.000
14.04647 514.000
14.06675 445.000
14.08703 501.000
14.10731 485.000
14.12759 449.000
14.14787 446.000
14.16815 470.000
14.18843 446.000
14.20871 439.000
14.22899 456.000
14.24927 467.000
14.26955 462.000
14.28983 464.000
14.31011 440.000
14.33039 454.000
14.35067 458.000
14.37096 460.000
14.39124 444.000
14.41152 438.000
14.43180 468.000
14.45208 435.000
14.47236 486.000
14.49264 451.000
14.51292 500.000
14.53320 510.000
14.55348 495.000
14.57376 494.000
14.59404 540.000
14.61432 622.000
14.63460 685.000
14.65488 746.000
14.67516 840.000
14.69544 845.000
14.71572 762.000
14.73600 746.000
14.75628 714.000
14.77656 740.000
14.79684 766.000
14.81712 740.000
14.83740 825.000
14.85768 911.000
14.87796 1036.000
14.89824 1037.000
14.91852 967.000
14.93880 934.000
14.95908 836.000
14.97936 757.000
14.99964 699.000
15.01992 613.000
15.04020 563.000
15.06048 477.000
15.08076 545.000
15.10104 510.000
15.12132 470.000
15.14160 512.000
15.16188 483.000
15.18216 449.000
15.20244 507.000
15.22272 471.000
15.24300 450.000
15.26328 469.000
15.28356 421.000
15.30384 484.000
15.32412 439.000
15.34440 515.000
15.36468 513.000
15.38496 504.000
15.40524 532.000
15.42552 501.000
15.44580 569.000
15.46608 598.000
15.48636 630.000
15.50664 660.000
15.52692 761.000
15.54720 810.000
15.56748 856.000
15.58776 1054.000
15.60804 1059.000
15.62832 1144.000
15.64860 1102.000
15.66888 1018.000
15.68916 1008.000
15.70944 978.000
15.72972 962.000
15.75000 943.000
15.77028 834.000
15.79056 781.000
15.81084 818.000
15.83112 795.000
15.85140 882.000
15.87168 884.000
15.89196 968.000
15.91224 1101.000
15.93252 1320.000
15.95280 1518.000
15.97308 1875.000
15.99336 2220.000
16.01364 2675.000
16.03392 3155.000
16.05420 3711.000
16.07448 3953.000
16.09476 3834.000
16.11504 3616.000
16.13532 3008.000
16.15560 2486.000
16.17588 1999.000
16.19616 1590.000
16.21644 1356.000
16.23672 1218.000
16.25700 1180.000
16.27729 1199.000
16.29757 1208.000
16.31785 1379.000
16.33813 1500.000
16.35841 1685.000
16.37869 1856.000
16.39897 2068.000
16.41925 1883.000
16.43953 1966.000
16.45981 1857.000
16.48009 1820.000
16.50037 1709.000
16.52065 1647.000
16.54093 1774.000
16.56121 1870.000
16.58149 2136.000
16.60177 2437.000
16.62205 2777.000
16.64233 3285.000
16.66261 3504.000
16.68289 3605.000
16.70317 3315.000
16.72345 3062.000
16.74373 2629.000
16.76401 2127.000
16.78429 1883.000
16.80457 1688.000
16.82485 1562.000
16.84513 1389.000
16.86541 1361.000
16.88569 1095.000
16.90597 1075.000
16.92625 986.000
16.94653 987.000
16.96681 987.000
16.98709 1011.000
17.00737 1162.000
17.02765 1173.000
17.04793 1336.000
17.06821 1423.000
17.08849 1612.000
17.10877 1698.000
17.12905 1822.000
17.14933 1806.000
17.16961 1852.000
17.18989 1957.000
17.21017 2150.000
17.23045 2413.000
17.25073 2863.000
17.27101 3267.000
17.29129 3864.000
17.31157 4333.000
17.33185 4881.000
17.35213 4971.000
17.37241 4731.000
17.39269 4105.000
17.41297 3370.000
17.43325 2869.000
17.45353 2131.000
17.47381 1864.000
17.49409 1552.000
17.51437 1426.000
17.53465 1545.000
17.55493 1505.000
17.57521 1572.000
17.59549 1808.000
17.61577 2110.000
17.63605 2679.000
17.65633 2996.000
17.67661 3930.000
17.69689 4882.000
17.71717 6065.000
17.73745 7099.000
17.75773 7803.000
17.77801 8329.000
17.79829 7611.000
17.81857 6525.000
17.83885 5152.000
17.85913 3844.000
17.87941 2967.000
17.89969 2408.000
17.91997 2099.000
17.94025 1966.000
17.96053 2000.000
17.98081 1994.000
18.00109 1942.000
18.02137 2050.000
18.04165 2113.000
18.06193 2281.000
18.08221 2451.000
18.10249 2467.000
18.12277 2573.000
18.14305 2702.000
18.16333 2575.000
18.18362 2802.000
18.20390 3110.000
18.22418 3470.000
18.24446 4086.000
18.26474 4426.000
18.28502 5351.000
18.30530 5966.000
18.32558 6410.000
18.34586 7261.000
18.36614 7526.000
18.38642 7818.000
18.40670 7427.000
18.42698 6489.000
18.44726 5454.000
18.46754 4408.000
18.48782 3291.000
18.50810 2641.000
18.52838 2209.000
18.54866 1858.000
18.56894 1606.000
18.58922 1590.000
18.60950 1510.000
18.62978 1558.000
18.65006 1598.000
18.67034 1621.000
18.69062 1689.000
18.71090 1801.000
18.73118 1854.000
18.75146 1951.000
18.77174 2072.000
18.79202 2208.000
18.81230 2420.000
18.83258 2812.000
18.85286 3109.000
18.87314 3358.000
18.89342 3693.000
18.91370 3771.000
18.93398 3605.000
18.95426 3446.000
18.97454 3120.000
18.99482 2812.000
19.01510 2477.000
19.03538 2223.000
19.05566 1988.000
19.07594 1845.000
19.09622 1708.000
19.11650 1522.000
19.13678 1373.000
19.15706 1313.000
19.17734 1290.000
19.19762 1293.000
19.21790 1263.000
19.23818 1331.000
19.25846 1392.000
19.27874 1442.000
19.29902 1590.000
19.31930 1675.000
19.33958 1824.000
19.35986 1837.000
19.38014 2088.000
19.40042 2398.000
19.42070 2556.000
19.44098 2903.000
19.46126 3139.000
19.48154 3551.000
19.50182 3661.000
19.52210 3640.000
19.54238 3442.000
19.56266 3279.000
19.58294 2926.000
19.60322 2667.000
19.62350 2499.000
19.64378 2328.000
19.66406 2472.000
19.68434 2580.000
19.70462 2771.000
19.72490 3029.000
19.74518 3487.000
19.76546 3781.000
19.78574 3834.000
19.80602 3795.000
19.82630 3561.000
19.84658 3413.000
19.86686 3294.000
19.88714 3133.000
19.90742 3267.000
19.92770 3712.000
19.94798 3984.000
19.96826 4413.000
19.98854 4745.000
20.00882 5382.000
20.02910 5553.000
20.04938 5409.000
20.06966 5292.000
20.08995 4668.000
20.11023 4231.000
20.13051 3640.000
20.15079 3082.000
20.17107 2732.000
20.19135 2511.000
20.21163 2369.000
20.23191 2315.000
20.25219 2387.000
20.27247 2380.000
20.29275 2491.000
20.31303 2727.000
20.33331 2886.000
20.35359 2871.000
20.37387 2887.000
20.39415 2842.000
20.41443 2541.000
20.43471 2455.000
20.45499 2208.000
20.47527 2276.000
20.49555 2547.000
20.51583 2556.000
20.53611 2976.000
20.55639 3401.000
20.57667 3891.000
20.59695 4365.000
20.61723 4727.000
20.63751 4740.000
20.65779 4679.000
20.67807 4104.000
20.69835 3417.000
20.71863 2771.000
20.73891 2310.000
20.75919 1846.000
20.77947 1586.000
20.79975 1419.000
20.82003 1331.000
20.84031 1364.000
20.86059 1344.000
20.88087 1472.000
20.90115 1502.000
20.92143 1436.000
20.94171 1418.000
20.96199 1367.000
20.98227 1367.000
21.00255 1214.000
21.02283 1193.000
21.04311 1158.000
21.06339 1175.000
21.08367 1135.000
21.10395 1180.000
21.12423 1223.000
21.14451 1360.000
21.16479 1361.000
21.18507 1486.000
21.20535 1638.000
21.22563 1729.000
21.24591 1897.000
21.26619 2035.000
21.28647 2127.000
21.30675 2376.000
21.32703 2584.000
21.34731 2741.000
21.36759 3152.000
21.38787 3426.000
21.40815 3983.000
21.42843 4416.000
21.44871 4744.000
21.46899 4809.000
21.48927 5006.000
21.50955 4996.000
21.52983 5148.000
21.55011 5224.000
21.57039 5226.000
21.59067 5704.000
21.61095 6099.000
21.63123 6402.000
21.65151 6984.000
21.67179 7096.000
21.69207 7033.000
21.71235 6473.000
21.73263 5735.000
21.75291 4811.000
21.77319 3939.000
21.79347 3259.000
21.81375 2574.000
21.83403 2153.000
21.85431 1884.000
21.87459 1729.000
21.89487 1550.000
21.91515 1535.000
21.93543 1512.000
21.95571 1527.000
21.97599 1610.000
21.99628 1618.000
22.01656 1646.000
22.03684 1793.000
22.05712 1802.000
22.07740 1905.000
22.09768 2043.000
22.11796 2262.000
22.13824 2401.000
22.15852 2601.000
22.17880 2837.000
22.19908 2636.000
22.21936 2603.000
22.23964 2328.000
22.25992 2090.000
22.28020 1852.000
22.30048 1585.000
22.32076 1229.000
22.34104 1181.000
22.36132 1152.000
22.38160 1109.000
22.40188 1117.000
22.42216 1123.000
22.44244 1123.000
22.46272 1161.000
22.48300 1239.000
22.50328 1233.000
22.52356 1366.000
22.54384 1396.000
22.56412 1421.000
22.58440 1476.000
22.60468 1546.000
22.62496 1591.000
22.64524 1483.000
22.66552 1667.000
22.68580 1770.000
22.70608 1882.000
22.72636 1996.000
22.74664 1951.000
22.76692 1937.000
22.78720 1799.000
22.80748 1727.000
22.82776 1591.000
22.84804 1398.000
22.86832 1350.000
22.88860 1199.000
22.90888 1255.000
22.92916 1090.000
22.94944 1064.000
22.96972 1063.000
22.99000 1130.000
23.01028 1150.000
23.03056 1136.000
23.05084 1140.000
23.07112 1118.000
23.09140 1183.000
23.11168 1126.000
23.13196 1114.000
23.15224 1010.000
23.17252 990.000
23.19280 953.000
23.21308 938.000
23.23336 989.000
23.25364 1038.000
23.27392 1075.000
23.29420 1138.000
23.31448 1233.000
23.33476 1390.000
23.35504 1433.000
23.37532 1670.000
23.39560 1857.000
23.41588 1900.000
23.43616 2007.000
23.45644 2135.000
23.47672 1959.000
23.49700 2042.000
23.51728 1903.000
23.53756 1704.000
23.55784 1691.000
23.57812 1610.000
23.59840 1512.000
23.61868 1442.000
23.63896 1435.000
23.65924 1475.000
23.67952 1414.000
23.69980 1464.000
23.72008 1436.000
23.74036 1322.000
23.76064 1245.000
23.78092 1265.000
23.80120 1278.000
23.82148 1275.000
23.84176 1245.000
23.86204 1297.000
23.88232 1428.000
23.90261 1445.000
23.92289 1489.000
23.94317 1499.000
23.96345 1623.000
23.98373 1711.000
24.00401 1655.000
24.02429 1603.000
24.04457 1680.000
24.06485 1655.000
24.08513 1625.000
24.10541 1652.000
24.12569 1630.000
24.14597 1676.000
24.16625 1775.000
24.18653 1649.000
24.20681 1688.000
24.22709 1649.000
24.24737 1558.000
24.26765 1424.000
24.28793 1351.000
24.30821 1308.000
24.32849 1261.000
24.34877 1314.000
24.36905 1415.000
24.38933 1437.000
24.40961 1526.000
24.42989 1481.000
24.45017 1489.000
24.47045 1480.000
24.49073 1364.000
24.51101 1299.000
24.53129 1173.000
24.55157 1116.000
24.57185 1071.000
24.59213 1101.000
24.61241 1176.000
24.63269 1219.000
24.65297 1380.000
24.67325 1363.000
24.69353 1560.000
24.71381 1604.000
24.73409 1661.000
24.75437 1714.000
24.77465 1685.000
24.79493 1706.000
24.81521 1577.000
24.83549 1511.000
24.85577 1416.000
24.87605 1394.000
24.89633 1301.000
24.91661 1220.000
24.93689 1135.000
24.95717 1040.000
24.97745 1092.000
24.99773 935.000
25.01801 933.000
25.03829 994.000
25.05857 1008.000
25.07885 1067.000
25.09913 1060.000
25.11941 1158.000
25.13969 1377.000
25.15997 1453.000
25.18025 1609.000
25.20053 1769.000
25.22081 1962.000
25.24109 2130.000
25.26137 2403.000
25.28165 2722.000
25.30193 2752.000
25.32221 2967.000
25.34249 3044.000
25.36277 2971.000
25.38305 2763.000
25.40333 2624.000
25.42361 2300.000
25.44389 2154.000
25.46417 1963.000
25.48445 1797.000
25.50473 1599.000
25.52501 1503.000
25.54529 1289.000
25.56557 1213.000
25.58585 1159.000
25.60613 1022.000
25.62641 1008.000
25.64669 1065.000
25.66697 1151.000
25.68725 1151.000
25.70753 1197.000
25.72781 1209.000
25.74809 1325.000
25.76837 1452.000
25.78865 1484.000
25.80893 1433.000
25.82922 1543.000
25.84950 1472.000
25.86978 1390.000
25.89006 1303.000
25.91034 1307.000
25.93062 1348.000
25.95090 1318.000
25.97118 1386.000
25.99146 1486.000
26.01174 1639.000
26.03202 1602.000
26.05230 1854.000
26.07258 2017.000
26.09286 2100.000
26.11314 2203.000
26.13342 2171.000
26.15370 2094.000
26.17398 1958.000
26.19426 1879.000
26.21454 1694.000
26.23482 1662.000
26.25510 1606.000
26.27538 1503.000
26.29566 1567.000
26.31594 1615.000
26.33622 1625.000
26.35650 1574.000
26.37678 1551.000
26.39706 1566.000
26.41734 1528.000
26.43762 1478.000
26.45790 1521.000
26.47818 1435.000
26.49846 1546.000
26.51874 1428.000
26.53902 1413.000
26.55930 1351.000
26.57958 1215.000
26.59986 1126.000
26.62014 1078.000
26.64042 1025.000
26.66070 928.000
26.68098 975.000
26.70126 905.000
26.72154 920.000
26.74182 893.000
26.76210 904.000
26.78238 861.000
26.80266 978.000
26.82294 1039.000
26.84322 1064.000
26.86350 1067.000
26.88378 1120.000
26.90406 1210.000
26.92434 1321.000
26.94462 1294.000
26.96490 1270.000
26.98518 1197.000
27.00546 1109.000
27.02574 988.000
27.04602 893.000
27.06630 911.000
27.08658 879.000
27.10686 822.000
27.12714 815.000
27.14742 838.000
27.16770 797.000
27.18798 768.000
27.20826 753.000
27.22854 770.000
27.24882 757.000
27.26910 758.000
27.28938 872.000
27.30966 835.000
27.32994 857.000
27.35022 896.000
27.37050 933.000
27.39078 841.000
27.41106 897.000
27.43134 882.000
27.45162 939.000
27.47190 973.000
27.49218 927.000
27.51246 1022.000
27.53274 952.000
27.55302 929.000
27.57330 968.000
27.59358 841.000
27.61386 831.000
27.63414 801.000
27.65442 668.000
27.67470 693.000
27.69498 687.000
27.71526 612.000
27.73555 624.000
27.75583 605.000
27.77611 563.000
27.79639 602.000
27.81667 651.000
27.83695 556.000
27.85723 555.000
27.87751 590.000
27.89779 544.000
27.91807 614.000
27.93835 632.000
27.95863 592.000
27.97891 615.000
27.99919 608.000
28.01947 627.000
28.03975 580.000
28.06003 612.000
28.08031 654.000
28.10059 624.000
28.12087 586.000
28.14115 634.000
28.16143 570.000
28.18171 634.000
28.20199 603.000
28.22227 625.000
28.24255 661.000
28.26283 640.000
28.28311 746.000
28.30339 704.000
28.32367 795.000
28.34395 774.000
28.36423 847.000
28.38451 939.000
28.40479 1003.000
28.42507 1165.000
28.44535 1209.000
28.46563 1310.000
28.48591 1455.000
28.50619 1672.000
28.52647 1853.000
28.54675 1840.000
28.56703 1905.000
28.58731 2004.000
28.60759 2030.000
28.62787 1928.000
28.64815 1895.000
28.66843 1738.000
28.68871 1640.000
28.70899 1561.000
28.72927 1441.000
28.74955 1419.000
28.76983 1356.000
28.79011 1358.000
28.81039 1243.000
28.83067 1123.000
28.85095 993.000
28.87123 984.000
28.89151 878.000
28.91179 796.000
28.93207 725.000
28.95235 735.000
28.97263 627.000
28.99291 745.000
29.01319 706.000
29.03347 736.000
29.05375 748.000
29.07403 692.000
29.09431 717.000
29.11459 708.000
29.13487 691.000
29.15515 782.000
29.17543 739.000
29.19571 798.000
29.21599 705.000
29.23627 736.000
29.25655 730.000
29.27683 737.000
29.29711 711.000
29.31739 670.000
29.33767 673.000
29.35795 666.000
29.37823 645.000
29.39851 638.000
29.41879 641.000
29.43907 631.000
29.45935 651.000
29.47963 628.000
29.49991 646.000
29.52019 694.000
29.54047 735.000
29.56075 700.000
29.58103 773.000
29.60131 824.000
29.62159 792.000
29.64188 896.000
29.66216 901.000
29.68244 1026.000
29.70272 1105.000
29.72300 1232.000
29.74328 1257.000
29.76356 1414.000
29.78384 1488.000
29.80412 1542.000
29.82440 1483.000
29.84468 1492.000
29.86496 1541.000
29.88524 1426.000
29.90552 1355.000
29.92580 1378.000
29.94608 1352.000
29.96636 1290.000
29.98664 1356.000
30.00692 1348.000
30.02720 1293.000
30.04748 1241.000
30.06776 1400.000
30.08804 1365.000
30.10832 1311.000
30.12860 1261.000
30.14888 1291.000
30.16916 1193.000
30.18944 1146.000
30.20972 1129.000
30.23000 1085.000
30.25028 1070.000
30.27056 972.000
30.29084 945.000
30.31112 909.000
30.33140 881.000
30.35168 922.000
30.37196 850.000
30.39224 800.000
30.41252 774.000
30.43280 774.000
30.45308 717.000
30.47336 765.000
30.49364 743.000
30.51392 635.000
30.53420 647.000
30.55448 618.000
30.57476 612.000
30.59504 620.000
30.61532 565.000
30.63560 598.000
30.65588 618.000
30.67616 600.000
30.69644 624.000
30.71672 645.000
30.73700 656.000
30.75728 669.000
30.77756 664.000
30.79784 681.000
30.81812 729.000
30.83840 672.000
30.85868 743.000
30.87896 762.000
30.89924 776.000
30.91952 800.000
30.93980 765.000
30.96008 774.000
30.98036 762.000
31.00064 725.000
31.02092 699.000
31.04120 709.000
31.06148 780.000
31.08176 739.000
31.10204 751.000
31.12232 731.000
31.14260 794.000
31.16288 787.000
31.18316 827.000
31.20344 800.000
31.22372 873.000
31.24400 879.000
31.26428 904.000
31.28456 923.000
31.30484 922.000
31.32512 971.000
31.34540 1023.000
31.36568 1012.000
31.38596 1015.000
31.40624 1054.000
31.42652 1018.000
31.44680 978.000
31.46708 1015.000
31.48736 1020.000
31.50764 960.000
31.52792 1140.000
31.54821 1194.000
31.56849 1200.000
31.58877 1276.000
31.60905 1424.000
31.62933 1445.000
31.64961 1524.000
31.66989 1456.000
31.69017 1514.000
31.71045 1405.000
31.73073 1321.000
31.75101 1274.000
31.77129 1155.000
31.79157 1081.000
31.81185 1080.000
31.83213 1043.000
31.85241 925.000
31.87269 906.000
31.89297 871.000
31.91325 933.000
31.93353 966.000
31.95381 977.000
31.97409 993.000
31.99437 968.000
32.01465 1010.000
32.03493 1018.000
32.05521 1003.000
32.07549 1016.000
32.09577 970.000
32.11605 911.000
32.13633 911.000
32.15661 844.000
32.17689 797.000
32.19717 700.000
32.21745 690.000
32.23773 707.000
32.25801 667.000
32.27829 659.000
32.29857 704.000
32.31885 687.000
32.33913 733.000
32.35941 748.000
32.37969 744.000
32.39997 724.000
32.42025 737.000
32.44053 681.000
32.46081 706.000
32.48109 678.000
32.50137 639.000
32.52165 648.000
32.54193 590.000
32.56221 588.000
32.58249 584.000
32.60277 586.000
32.62305 598.000
32.64333 571.000
32.66361 607.000
32.68389 587.000
32.70417 640.000
32.72445 617.000
32.74473 581.000
32.76501 581.000
32.78529 498.000
32.80557 612.000
32.82585 568.000
32.84613 621.000
32.86641 587.000
32.88669 601.000
32.90697 580.000
32.92725 547.000
32.94753 602.000
32.96781 659.000
32.98809 598.000
33.00837 670.000
33.02865 687.000
33.04893 668.000
33.06921 750.000
33.08949 756.000
33.10977 758.000
33.13005 765.000
33.15033 794.000
33.17061 810.000
33.19089 823.000
33.21117 813.000
33.23145 748.000
33.25173 727.000
33.27201 740.000
33.29229 700.000
33.31257 670.000
33.33285 641.000
33.35313 656.000
33.37341 667.000
33.39369 664.000
33.41397 683.000
33.43425 678.000
33.45454 680.000
33.47482 660.000
33.49510 754.000
33.51538 696.000
33.53566 711.000
33.55594 738.000
33.57622 731.000
33.59650 753.000
33.61678 804.000
33.63706 766.000
33.65734 786.000
33.67762 760.000
33.69790 786.000
33.71818 735.000
33.73846 685.000
33.75874 669.000
33.77902 678.000
33.79930 621.000
33.81958 639.000
33.83986 592.000
33.86014 592.000
33.88042 607.000
33.90070 596.000
33.92098 571.000
33.94126 555.000
33.96154 568.000
33.98182 517.000
34.00210 529.000
34.02238 531.000
34.04266 546.000
34.06294 569.000
34.08322 593.000
34.10350 527.000
34.12378 534.000
34.14406 569.000
34.16434 592.000
34.18462 570.000
34.20490 582.000
34.22518 578.000
34.24546 563.000
34.26574 556.000
34.28602 520.000
34.30630 530.000
34.32658 562.000
34.34686 508.000
34.36714 506.000
34.38742 493.000
34.40770 527.000
34.42798 512.000
34.44826 534.000
34.46854 531.000
34.48882 511.000
34.50910 563.000
34.52938 578.000
34.54966 579.000
34.56994 636.000
34.59022 626.000
34.61050 637.000
34.63078 691.000
34.65106 682.000
34.67134 681.000
34.69162 661.000
34.71190 654.000
34.73218 690.000
34.75246 668.000
34.77274 667.000
34.79302 670.000
34.81330 633.000
34.83358 746.000
34.85386 778.000
34.87414 779.000
34.89442 751.000
34.91470 821.000
34.93498 861.000
34.95526 836.000
34.97554 962.000
34.99582 1005.000
35.01610 978.000
35.03638 1018.000
35.05666 983.000
35.07694 995.000
35.09722 945.000
35.11750 890.000
35.13778 916.000
35.15806 872.000
35.17834 905.000
35.19862 798.000
35.21890 890.000
35.23918 840.000
35.25946 900.000
35.27974 893.000
35.30002 847.000
35.32030 861.000
35.34058 842.000
35.36087 796.000
35.38115 772.000
35.40143 672.000
35.42171 635.000
35.44199 645.000
35.46227 623.000
35.48255 606.000
35.50283 609.000
35.52311 550.000
35.54339 554.000
35.56367 565.000
35.58395 553.000
35.60423 529.000
35.62451 538.000
35.64479 553.000
35.66507 515.000
35.68535 516.000
35.70563 541.000
35.72591 523.000
35.74619 562.000
35.76647 551.000
35.78675 561.000
35.80703 577.000
35.82731 554.000
35.84759 588.000
35.86787 589.000
35.88815 642.000
35.90843 662.000
35.92871 656.000
35.94899 662.000
35.96927 633.000
35.98955 711.000
36.00983 703.000
36.03011 682.000
36.05039 698.000
36.07067 788.000
36.09095 838.000
36.11123 863.000
36.13151 879.000
36.15179 917.000
36.17207 939.000
36.19235 996.000
36.21263 975.000
36.23291 993.000
36.25319 994.000
36.27347 1000.000
36.29375 939.000
36.31403 924.000
36.33431 888.000
36.35459 866.000
36.37487 809.000
36.39515 823.000
36.41543 781.000
36.43571 741.000
36.45599 717.000
36.47627 724.000
36.49655 654.000
36.51683 664.000
36.53711 656.000
36.55739 628.000
36.57767 623.000
36.59795 617.000
36.61823 619.000
36.63851 675.000
36.65879 623.000
36.67907 599.000
36.69935 642.000
36.71963 619.000
36.73991 621.000
36.76019 685.000
36.78047 597.000
36.80075 603.000
36.82103 595.000
36.84131 597.000
36.86159 579.000
36.88187 554.000
36.90215 563.000
36.92243 562.000
36.94271 577.000
36.96299 584.000
36.98327 539.000
37.00355 522.000
37.02383 575.000
37.04411 562.000
37.06439 558.000
37.08467 576.000
37.10495 614.000
37.12523 639.000
37.14551 634.000
37.16579 639.000
37.18607 618.000
37.20635 703.000
37.22663 721.000
37.24691 694.000
37.26720 747.000
37.28748 708.000
37.30776 721.000
37.32804 730.000
37.34832 677.000
37.36860 656.000
37.38888 665.000
37.40916 635.000
37.42944 606.000
37.44972 581.000
37.47000 532.000
37.49028 579.000
37.51056 537.000
37.53084 544.000
37.55112 497.000
37.57140 495.000
37.59168 526.000
37.61196 495.000
37.63224 491.000
37.65252 488.000
37.67280 490.000
37.69308 503.000
37.71336 510.000
37.73364 507.000
37.75392 518.000
37.77420 590.000
37.79448 534.000
37.81476 558.000
37.83504 569.000
37.85532 596.000
37.87560 605.000
37.89588 684.000
37.91616 655.000
37.93644 683.000
37.95672 670.000
37.97700 666.000
37.99728 663.000
38.01756 644.000
38.03784 720.000
38.05812 659.000
38.07840 664.000
38.09868 615.000
38.11896 631.000
38.13924 611.000
38.15952 676.000
38.17980 581.000
38.20008 633.000
38.22036 561.000
38.24064 648.000
38.26092 708.000
38.28120 673.000
38.30148 671.000
38.32176 707.000
38.34204 757.000
38.36232 720.000
38.38260 700.000
38.40288 748.000
38.42316 774.000
38.44344 746.000
38.46372 763.000
38.48400 778.000
38.50428 751.000
38.52456 681.000
38.54484 655.000
38.56512 666.000
38.58540 665.000
38.60568 594.000
38.62596 595.000
38.64624 587.000
38.66652 584.000
38.68680 589.000
38.70708 606.000
38.72736 568.000
38.74764 612.000
38.76792 619.000
38.78820 671.000
38.80848 607.000
38.82876 673.000
38.84904 635.000
38.86932 652.000
38.88960 666.000
38.90988 680.000
38.93016 720.000
38.95044 790.000
38.97072 802.000
38.99100 765.000
39.01128 827.000
39.03156 798.000
39.05184 855.000
39.07212 828.000
39.09240 822.000
39.11268 741.000
39.13296 743.000
39.15324 755.000
39.17353 668.000
39.19381 632.000
39.21409 633.000
39.23437 642.000
39.25465 614.000
39.27493 580.000
39.29521 599.000
39.31549 541.000
39.33577 577.000
39.35605 585.000
39.37633 594.000
39.39661 591.000
39.41689 591.000
39.43717 629.000
39.45745 576.000
39.47773 628.000
39.49801 618.000
39.51829 643.000
39.53857 631.000
39.55885 617.000
39.57913 604.000
39.59941 647.000
39.61969 668.000
39.63997 683.000
39.66025 624.000
39.68053 648.000
39.70081 633.000
39.72109 584.000
39.74137 608.000
39.76165 561.000
39.78193 584.000
39.80221 582.000
39.82249 597.000
39.84277 638.000
39.86305 601.000
39.88333 595.000
39.90361 618.000
39.92389 669.000
39.94417 605.000
39.96445 609.000
39.98473 629.000
40.00501 633.000
40.02529 613.000
40.04557 574.000
40.06585 625.000
40.08613 657.000
40.10641 658.000
40.12669 654.000
40.14697 626.000
40.16725 646.000
40.18753 683.000
40.20781 625.000
40.22809 664.000
40.24837 661.000
40.26865 706.000
40.28893 727.000
40.30921 675.000
40.32949 691.000
40.34977 720.000
40.37005 755.000
40.39033 781.000
40.41061 816.000
40.43089 899.000
40.45117 865.000
40.47145 901.000
40.49173 901.000
40.51201 981.000
40.53229 898.000
40.55257 915.000
40.57285 950.000
40.59313 918.000
40.61341 921.000
40.63369 840.000
40.65397 826.000
40.67425 783.000
40.69453 763.000
40.71481 682.000
40.73509 715.000
40.75537 668.000
40.77565 623.000
40.79593 620.000
40.81621 543.000
40.83649 589.000
40.85677 556.000
40.87705 606.000
40.89733 531.000
40.91761 604.000
40.93789 580.000
40.95817 558.000
40.97845 547.000
40.99873 550.000
41.01901 535.000
41.03929 570.000
41.05957 566.000
41.07986 591.000
41.10014 582.000
41.12042 618.000
41.14070 620.000
41.16098 583.000
41.18126 595.000
41.20154 586.000
41.22182 571.000
41.24210 584.000
41.26238 617.000
41.28266 559.000
41.30294 592.000
41.32322 600.000
41.34350 586.000
41.36378 517.000
41.38406 581.000
41.40434 564.000
41.42462 521.000
41.44490 547.000
41.46518 526.000
41.48546 496.000
41.50574 523.000
41.52602 472.000
41.54630 487.000
41.56658 513.000
41.58686 539.000
41.60714 573.000
41.62742 503.000
41.64770 520.000
41.66798 524.000
41.68826 553.000
41.70854 534.000
41.72882 574.000
41.74910 568.000
41.76938 551.000
41.78966 549.000
41.80994 534.000
41.83022 537.000
41.85050 530.000
41.87078 537.000
41.89106 541.000
41.91134 462.000
41.93162 496.000
41.95190 521.000
41.97218 455.000
41.99246 495.000
42.01274 469.000
42.03302 433.000
42.05330 450.000
42.07358 429.000
42.09386 456.000
42.11414 459.000
42.13442 507.000
42.15470 427.000
42.17498 466.000
42.19526 453.000
42.21554 452.000
42.23582 399.000
42.25610 474.000
42.27638 457.000
42.29666 509.000
42.31694 486.000
42.33722 496.000
42.35750 525.000
42.37778 503.000
42.39806 507.000
42.41834 563.000
42.43862 552.000
42.45890 515.000
42.47918 559.000
42.49946 538.000
42.51974 564.000
42.54002 537.000
42.56030 582.000
42.58058 591.000
42.60086 566.000
42.62114 598.000
42.64142 578.000
42.66170 548.000
42.68198 587.000
42.70226 574.000
42.72254 572.000
42.74282 530.000
42.76310 537.000
42.78338 566.000
42.80366 524.000
42.82394 550.000
42.84422 518.000
42.86450 515.000
42.88478 490.000
42.90506 530.000
42.92534 539.000
42.94562 556.000
42.96590 480.000
42.98619 535.000
43.00647 490.000
43.02675 535.000
43.04703 532.000
43.06731 575.000
43.08759 542.000
43.10787 555.000
43.12815 585.000
43.14843 562.000
43.16871 617.000
43.18899 574.000
43.20927 617.000
43.22955 615.000
43.24983 653.000
43.27011 620.000
43.29039 614.000
43.31067 595.000
43.33095 534.000
43.35123 606.000
43.37151 573.000
43.39179 590.000
43.41207 598.000
43.43235 567.000
43.45263 568.000
43.47291 606.000
43.49319 610.000
43.51347 627.000
43.53375 607.000
43.55403 608.000
43.57431 547.000
43.59459 612.000
43.61487 643.000
43.63515 654.000
43.65543 608.000
43.67571 655.000
43.69599 616.000
43.71627 651.000
43.73655 622.000
43.75683 652.000
43.77711 659.000
43.79739 632.000
43.81767 606.000
43.83795 630.000
43.85823 615.000
43.87851 615.000
43.89879 584.000
43.91907 601.000
43.93935 567.000
43.95963 585.000
43.97991 616.000
44.00019 560.000
44.02047 558.000
44.04075 575.000
44.06103 564.000
44.08131 564.000
44.10159 516.000
44.12187 550.000
44.14215 591.000
44.16243 591.000
44.18271 580.000
44.20299 566.000
44.22327 594.000
44.24355 595.000
44.26383 617.000
44.28411 634.000
44.30439 661.000
44.32467 686.000
44.34495 707.000
44.36523 669.000
44.38551 742.000
44.40579 668.000
44.42607 683.000
44.44635 713.000
44.46663 724.000
44.48691 723.000
44.50719 671.000
44.52747 692.000
44.54775 725.000
44.56803 726.000
44.58831 709.000
44.60859 693.000
44.62887 694.000
44.64915 694.000
44.66943 742.000
44.68971 679.000
44.70999 657.000
44.73027 656.000
44.75055 658.000
44.77083 633.000
44.79111 680.000
44.81139 651.000
44.83167 671.000
44.85195 617.000
44.87223 640.000
44.89251 633.000
44.91280 661.000
44.93308 602.000
44.95336 581.000
44.97364 598.000
44.99392 587.000
45.01420 567.000
45.03448 598.000
45.05476 606.000
45.07504 597.000
45.09532 560.000
45.11560 621.000
45.13588 607.000
45.15616 573.000
45.17644 553.000
45.19672 638.000
45.21700 604.000
45.23728 578.000
45.25756 591.000
45.27784 599.000
45.29812 570.000
45.31840 567.000
45.33868 604.000
45.35896 548.000
45.37924 579.000
45.39952 620.000
45.41980 583.000
45.44008 595.000
45.46036 634.000
45.48064 644.000
45.50092 628.000
45.52120 623.000
45.54148 609.000
45.56176 641.000
45.58204 605.000
45.60232 566.000
45.62260 617.000
45.64288 622.000
45.66316 579.000
45.68344 522.000
45.70372 566.000
45.72400 548.000
45.74428 540.000
45.76456 557.000
45.78484 560.000
45.80512 519.000
45.82540 520.000
45.84568 529.000
45.86596 551.000
45.88624 592.000
45.90652 523.000
45.92680 499.000
45.94708 545.000
45.96736 557.000
45.98764 518.000
46.00792 515.000
46.02820 526.000
46.04848 523.000
46.06876 530.000
46.08904 515.000
46.10932 540.000
46.12960 622.000
46.14988 576.000
46.17016 550.000
46.19044 565.000
46.21072 608.000
46.23100 570.000
46.25128 574.000
46.27156 576.000
46.29184 586.000
46.31212 610.000
46.33240 589.000
46.35268 593.000
46.37296 597.000
46.39324 589.000
46.41352 602.000
46.43380 644.000
46.45408 605.000
46.47436 635.000
46.49464 622.000
46.51492 650.000
46.53520 628.000
46.55548 701.000
46.57576 652.000
46.59604 654.000
46.61632 691.000
46.63660 612.000
46.65688 618.000
46.67716 617.000
46.69744 613.000
46.71772 621.000
46.73800 577.000
46.75828 543.000
46.77856 552.000
46.79884 535.000
46.81913 549.000
46.83941 535.000
46.85969 504.000
46.87997 524.000
46.90025 487.000
46.92053 479.000
46.94081 504.000
46.96109 495.000
46.98137 525.000
47.00165 541.000
47.02193 547.000
47.04221 539.000
47.06249 554.000
47.08277 502.000
47.10305 550.000
47.12333 574.000
47.14361 509.000
47.16389 494.000
47.18417 533.000
47.20445 504.000
47.22473 546.000
47.24501 512.000
47.26529 551.000
47.28557 559.000
47.30585 541.000
47.32613 574.000
47.34641 501.000
47.36669 553.000
47.38697 542.000
47.40725 552.000
47.42753 542.000
47.44781 595.000
47.46809 579.000
47.48837 564.000
47.50865 563.000
47.52893 568.000
47.54921 609.000
47.56949 567.000
47.58977 547.000
47.61005 581.000
47.63033 600.000
47.65061 529.000
47.67089 520.000
47.69117 548.000
47.71145 576.000
47.73173 579.000
47.75201 562.000
47.77229 541.000
47.79257 553.000
47.81285 555.000
47.83313 531.000
47.85341 558.000
47.87369 586.000
47.89397 514.000
47.91425 603.000
47.93453 526.000
47.95481 540.000
47.97509 580.000
47.99537 582.000
48.01565 569.000
48.03593 537.000
48.05621 511.000
48.07649 561.000
48.09677 521.000
48.11705 558.000
48.13733 482.000
48.15761 515.000
48.17789 561.000
48.19817 490.000
48.21845 496.000
48.23873 491.000
48.25901 496.000
48.27929 526.000
48.29957 541.000
48.31985 532.000
48.34013 515.000
48.36041 517.000
48.38069 508.000
48.40097 519.000
48.42125 539.000
48.44153 504.000
48.46181 535.000
48.48209 493.000
48.50237 524.000
48.52265 529.000
48.54293 483.000
48.56321 499.000
48.58349 469.000
48.60377 486.000
48.62405 474.000
48.64433 476.000
48.66461 454.000
48.68489 483.000
48.70517 480.000
48.72546 454.000
48.74574 503.000
48.76602 481.000
48.78630 470.000
48.80658 481.000
48.82686 510.000
48.84714 494.000
48.86742 520.000
48.88770 522.000
48.90798 515.000
48.92826 481.000
48.94854 521.000
48.96882 547.000
48.98910 485.000
49.00938 509.000
49.02966 551.000
49.04994 498.000
49.07022 517.000
49.09050 507.000
49.11078 503.000
49.13106 481.000
49.15134 485.000
49.17162 510.000
49.19190 529.000
49.21218 503.000
49.23246 547.000
49.25274 497.000
49.27302 533.000
49.29330 483.000
49.31358 507.000
49.33386 492.000
49.35414 542.000
49.37442 511.000
49.39470 482.000
49.41498 459.000
49.43526 427.000
49.45554 505.000
49.47582 465.000
49.49610 500.000
49.51638 415.000
49.53666 463.000
49.55694 460.000
49.57722 461.000
49.59750 471.000
49.61778 462.000
49.63806 484.000
49.65834 448.000
49.67862 451.000
49.69890 453.000
49.71918 473.000
49.73946 468.000
49.75974 456.000
49.78002 471.000
49.80030 479.000
49.82058 481.000
49.84086 446.000
49.86114 487.000
49.88142 526.000
49.90170 459.000
49.92198 506.000
49.94226 491.000
49.96254 487.000
49.98282 436.000
50.00310 477.000
