5.00155 800.000
5.02183 806.000
5.04211 793.000
5.06239 789.000
5.08267 725.000
5.10295 794.000
5.12323 808.000
5.14351 787.000
5.16379 758.000
5.18407 813.000
5.20435 738.000
5.22463 760.000
5.24491 734.000
5.26519 668.000
5.28547 737.000
5.30575 674.000
5.32603 667.000
5.34631 692.000
5.36659 682.000
5.38687 670.000
5.40715 669.000
5.42743 664.000
5.44771 695.000
5.46799 632.000
5.48827 641.000
5.50855 633.000
5.52883 597.000
5.54911 620.000
5.56939 595.000
5.58967 629.000
5.60995 602.000
5.63023 574.000
5.65051 580.000
5.67079 584.000
5.69107 569.000
5.71135 603.000
5.73163 555.000
5.75191 545.000
5.77219 545.000
5.79247 563.000
5.81275 543.000
5.83303 506.000
5.85331 523.000
5.87359 470.000
5.89387 537.000
5.91415 524.000
5.93443 506.000
5.95471 477.000
5.97499 520.000
5.99527 527.000
6.01555 448.000
6.03583 513.000
6.05611 557.000
6.07639 455.000
6.09667 518.000
6.11695 503.000
6.13723 421.000
6.15751 489.000
6.17779 503.000
6.19807 481.000
6.21835 501.000
6.23863 463.000
6.25891 490.000
6.27919 517.000
6.29947 508.000
6.31975 542.000
6.34003 639.000
6.36031 619.000
6.38059 681.000
6.40087 697.000
6.42115 705.000
6.44143 640.000
6.46171 581.000
6.48199 487.000
6.50227 497.000
6.52255 405.000
6.54283 443.000
6.56311 444.000
6.58339 486.000
6.60367 432.000
6.62395 497.000
6.64423 450.000
6.66451 497.000
6.68479 507.000
6.70507 568.000
6.72536 597.000
6.74564 638.000
6.76592 663.000
6.78620 722.000
6.80648 751.000
6.82676 747.000
6.84704 714.000
6.86732 590.000
6.88760 529.000
6.90788 468.000
6.92816 417.000
6.94844 407.000
6.96872 368.000
6.98900 362.000
7.00928 398.000
7.02956 387.000
7.04984 337.000
7.07012 337.000
7.09040 340.000
7.11068 348.000
7.13096 317.000
7.15124 358.000
7.17152 316.000
7.19180 313.000
7.21208 345.000
7.23236 316.000
7.25264 309.000
7.27292 300.000
7.29320 292.000
7.31348 341.000
7.33376 336.000
7.35404 309.000
7.37432 301.000
7.39460 279.000
7.41488 311.000
7.43516 303.000
7.45544 318.000
7.47572 322.000
7.49600 306.000
7.51628 290.000
7.53656 269.000
7.55684 324.000
7.57712 319.000
7.59740 324.000
7.61768 334.000
7.63796 290.000
7.65824 306.000
7.67852 292.000
7.69880 329.000
7.71908 307.000
7.73936 348.000
7.75964 331.000
7.77992 311.000
7.80020 305.000
7.82048 356.000
7.84076 327.000
7.86104 314.000
7.88132 267.000
7.90160 301.000
7.92188 326.000
7.94216 319.000
7.96244 307.000
7.98272 313.000
8.00300 330.000
8.02328 348.000
8.04356 321.000
8.06384 285.000
8.08412 319.000
8.10440 294.000
8.12468 362.000
8.14496 356.000
8.16524 354.000
8.18552 383.000
8.20580 405.000
8.22608 424.000
8.24636 480.000
8.26664 517.000
8.28692 615.000
8.30720 645.000
8.32748 732.000
8.34776 847.000
8.36804 880.000
8.38832 914.000
8.40860 872.000
8.42888 840.000
8.44916 880.000
8.46944 990.000
8.48972 1130.000
8.51000 1390.000
8.53028 1698.000
8.55056 2281.000
8.57084 2922.000
8.59112 3633.000
8.61140 4223.000
8.63168 4177.000
8.65197 3738.000
8.67225 2893.000
8.69253 1838.000
8.71281 1298.000
8.73309 861.000
8.75337 615.000
8.77365 548.000
8.79393 468.000
8.81421 423.000
8.83449 453.000
8.85477 403.000
8.87505 376.000
8.89533 378.000
8.91561 401.000
8.93589 353.000
8.95617 417.000
8.97645 372.000
8.99673 355.000
9.01701 356.000
9.03729 361.000
9.05757 380.000
9.07785 340.000
9.09813 366.000
9.11841 349.000
9.13869 371.000
9.15897 339.000
9.17925 377.000
9.19953 371.000
9.21981 413.000
9.24009 433.000
9.26037 425.000
9.28065 429.000
9.30093 527.000
9.32121 622.000
9.34149 692.000
9.36177 901.000
9.38205 1153.000
9.40233 1341.000
9.42261 1639.000
9.44289 2102.000
9.46317 2356.000
9.48345 2312.000
9.50373 2183.000
9.52401 1598.000
9.54429 1080.000
9.56457 771.000
9.58485 640.000
9.60513 568.000
9.62541 560.000
9.64569 586.000
9.66597 584.000
9.68625 717.000
9.70653 787.000
9.72681 1102.000
9.74709 1255.000
9.76737 1569.000
9.78765 2019.000
9.80793 2411.000
9.82821 2758.000
9.84849 2959.000
9.86877 2711.000
9.88905 2003.000
9.90933 1496.000
9.92961 977.000
9.94989 680.000
9.97017 502.000
9.99045 527.000
10.01073 507.000
10.03101 464.000
10.05129 434.000
10.07157 453.000
10.09185 382.000
10.11213 408.000
10.13241 369.000
10.15269 354.000
10.17297 339.000
10.19325 326.000
10.21353 335.000
10.23381 357.000
10.25409 291.000
10.27437 349.000
10.29465 348.000
10.31493 354.000
10.33521 341.000
10.35549 396.000
10.37577 406.000
10.39605 421.000
10.41633 423.000
10.43661 414.000
10.45689 387.000
10.47717 356.000
10.49745 359.000
10.51773 376.000
10.53801 401.000
10.55830 380.000
10.57858 389.000
10.59886 370.000
10.61914 379.000
10.63942 339.000
10.65970 330.000
10.67998 355.000
10.70026 393.000
10.72054 373.000
10.74082 442.000
10.76110 440.000
10.78138 491.000
10.80166 611.000
10.82194 742.000
10.84222 868.000
10.86250 1104.000
10.88278 1358.000
10.90306 1511.000
10.92334 1634.000
10.94362 1696.000
10.96390 1501.000
10.98418 1098.000
11.00446 772.000
11.02474 542.000
11.04502 450.000
11.06530 411.000
11.08558 368.000
11.10586 372.000
11.12614 313.000
11.14642 305.000
11.16670 303.000
11.18698 324.000
11.20726 300.000
11.22754 328.000
11.24782 317.000
11.26810 293.000
11.28838 257.000
11.30866 267.000
11.32894 316.000
11.34922 308.000
11.36950 276.000
11.38978 269.000
11.41006 267.000
11.43034 306.000
11.45062 295.000
11.47090 299.000
11.49118 265.000
11.51146 259.000
11.53174 293.000
11.55202 294.000
11.57230 276.000
11.59258 281.000
11.61286 265.000
11.63314 246.000
11.65342 268.000
11.67370 283.000
11.69398 301.000
11.71426 256.000
11.73454 282.000
11.75482 289.000
11.77510 273.000
11.79538 289.000
11.81566 250.000
11.83594 254.000
11.85622 267.000
11.87650 258.000
11.89678 255.000
11.91706 289.000
11.93734 251.000
11.95762 293.000
11.97790 294.000
11.99818 272.000
12.01846 296.000
12.03874 246.000
12.05902 272.000
12.07930 284.000
12.09958 258.000
12.11986 286.000
12.14014 327.000
12.16042 256.000
12.18070 264.000
12.20098 282.000
12.22126 285.000
12.24154 268.000
12.26182 289.000
12.28210 320.000
12.30238 317.000
12.32266 294.000
12.34294 296.000
12.36322 314.000
12.38350 319.000
12.40378 317.000
12.42406 297.000
12.44434 317.000
12.46463 278.000
12.48491 251.000
12.50519 286.000
12.52547 270.000
12.54575 241.000
12.56603 280.000
12.58631 258.000
12.60659 245.000
12.62687 272.000
12.64715 284.000
12.66743 228.000
12.68771 264.000
12.70799 271.000
12.72827 258.000
12.74855 255.000
12.76883 285.000
12.78911 267.000
12.80939 280.000
12.82967 345.000
12.84995 292.000
12.87023 324.000
12.89051 359.000
12.91079 350.000
12.93107 381.000
12.95135 391.000
12.97163 437.000
12.99191 427.000
13.01219 377.000
13.03247 399.000
13.05275 351.000
13.07303 387.000
13.09331 409.000
13.11359 410.000
13.13387 462.000
13.15415 497.000
13.17443 565.000
13.19471 547.000
13.21499 686.000
13.23527 715.000
13.25555 824.000
13.27583 658.000
13.29611 598.000
13.31639 536.000
13.33667 461.000
13.35695 445.000
13.37723 441.000
13.39751 411.000
13.41779 425.000
13.43807 475.000
13.45835 486.000
13.47863 506.000
13.49891 584.000
13.51919 663.000
13.53947 719.000
13.55975 814.000
13.58003 949.000
13.60031 1185.000
13.62059 1415.000
13.64087 1623.000
13.66115 1735.000
13.68143 1948.000
13.70171 1969.000
13.72199 1933.000
13.74227 1772.000
13.76255 1862.000
13.78283 1831.000
13.80311 1717.000
13.82339 1550.000
13.84367 1167.000
13.86395 893.000
13.88423 631.000
13.90451 524.000
13.92479 455.000
13.94507 376.000
13.96535 368.000
13.98563 345.000
14.00591 374.000
14.02619 313.000
14.04647 322.000
14.06675 345.000
14.08703 326.000
14.10731 347.000
14.12759 288.000
14.14787 288.000
14.16815 312.000
14.18843 319.000
14.20871 306.000
14.22899 293.000
14.24927 312.000
14.26955 293.000
14.28983 303.000
14.31011 312.000
14.33039 302.000
14.35067 304.000
14.37096 296.000
14.39124 294.000
14.41152 318.000
14.43180 305.000
14.45208 325.000
14.47236 350.000
14.49264 338.000
14.51292 314.000
14.53320 311.000
14.55348 354.000
14.57376 346.000
14.59404 375.000
14.61432 442.000
14.63460 446.000
14.65488 482.000
14.67516 474.000
14.69544 496.000
14.71572 444.000
14.73600 420.000
14.75628 421.000
14.77656 529.000
14.79684 514.000
14.81712 590.000
14.83740 655.000
14.85768 729.000
14.87796 748.000
14.89824 680.000
14.91852 637.000
14.93880 522.000
14.95908 475.000
14.97936 439.000
14.99964 385.000
15.01992 337.000
15.04020 346.000
15.06048 307.000
15.08076 310.000
15.10104 340.000
15.12132 330.000
15.14160 320.000
15.16188 302.000
15.18216 275.000
15.20244 349.000
15.22272 337.000
15.24300 316.000
15.26328 354.000
15.28356 339.000
15.30384 306.000
15.32412 332.000
15.34440 363.000
15.36468 368.000
15.38496 346.000
15.40524 398.000
15.42552 419.000
15.44580 447.000
15.46608 460.000
15.48636 477.000
15.50664 581.000
15.52692 594.000
15.54720 683.000
15.56748 781.000
15.58776 752.000
15.60804 839.000
15.62832 746.000
15.64860 751.000
15.66888 706.000
15.68916 638.000
15.70944 623.000
15.72972 597.000
15.75000 576.000
15.77028 502.000
15.79056 570.000
15.81084 566.000
15.83112 607.000
15.85140 591.000
15.87168 703.000
15.89196 804.000
15.91224 940.000
15.93252 1160.000
15.95280 1400.000
15.97308 1675.000
15.99336 2097.000
16.01364 2562.000
16.03392 2913.000
16.05420 3170.000
16.07448 3227.000
16.09476 2827.000
16.11504 2251.000
16.13532 1657.000
16.15560 1165.000
16.17588 948.000
16.19616 769.000
16.21644 749.000
16.23672 692.000
16.25700 817.000
16.27729 819.000
16.29757 898.000
16.31785 981.000
16.33813 998.000
16.35841 1222.000
16.37869 1252.000
16.39897 1418.000
16.41925 1351.000
16.43953 1196.000
16.45981 1135.000
16.48009 1126.000
16.50037 1059.000
16.52065 1205.000
16.54093 1312.000
16.56121 1481.000
16.58149 1700.000
16.60177 2120.000
16.62205 2474.000
16.64233 2708.000
16.66261 2820.000
16.68289 2614.000
16.70317 2022.000
16.72345 1702.000
16.74373 1252.000
16.76401 1016.000
16.78429 887.000
16.80457 837.000
16.82485 769.000
16.84513 671.000
16.86541 633.000
16.88569 617.000
16.90597 605.000
16.92625 584.000
16.94653 607.000
16.96681 678.000
16.98709 697.000
17.00737 691.000
17.02765 866.000
17.04793 849.000
17.06821 899.000
17.08849 1060.000
17.10877 1070.000
17.12905 1193.000
17.14933 1273.000
17.16961 1362.000
17.18989 1531.000
17.21017 1817.000
17.23045 2069.000
17.25073 2462.000
17.27101 2897.000
17.29129 3413.000
17.31157 3762.000
17.33185 3750.000
17.35213 3459.000
17.37241 2757.000
17.39269 2177.000
17.41297 1600.000
17.43325 1166.000
17.45353 982.000
17.47381 973.000
17.49409 977.000
17.51437 1076.000
17.53465 1123.000
17.55493 1345.000
17.57521 1460.000
17.59549 1823.000
17.61577 2137.000
17.63605 2593.000
17.65633 3180.000
17.67661 3718.000
17.69689 4443.000
17.71717 4949.000
17.73745 5273.000
17.75773 5154.000
17.77801 4702.000
17.79829 3734.000
17.81857 2738.000
17.83885 2173.000
17.85913 1703.000
17.87941 1408.000
17.89969 1348.000
17.91997 1318.000
17.94025 1358.000
17.96053 1305.000
17.98081 1326.000
18.00109 1231.000
18.02137 1240.000
18.04165 1288.000
18.06193 1440.000
18.08221 1488.000
18.10249 1552.000
18.12277 1713.000
18.14305 1748.000
18.16333 1908.000
18.18362 2195.000
18.20390 2541.000
18.22418 2834.000
18.24446 3422.000
18.26474 4064.000
18.28502 4277.000
18.30530 5092.000
18.32558 5289.000
18.34586 5811.000
18.36614 5789.000
18.38642 5282.000
18.40670 4405.000
18.42698 3456.000
18.44726 2519.000
18.46754 1873.000
18.48782 1371.000
18.50810 1131.000
18.52838 1051.000
18.54866 950.000
18.56894 912.000
18.58922 903.000
18.60950 975.000
18.62978 971.000
18.65006 978.000
18.67034 1065.000
18.69062 1106.000
18.71090 1313.000
18.73118 1293.000
18.75146 1387.000
18.77174 1655.000
18.79202 1800.000
18.81230 2076.000
18.83258 2386.000
18.85286 2625.000
18.87314 2796.000
18.89342 2821.000
18.91370 2650.000
18.93398 2319.000
18.95426 2056.000
18.97454 1816.000
18.99482 1617.000
19.01510 1536.000
19.03538 1389.000
19.05566 1198.000
19.07594 1061.000
19.09622 969.000
19.11650 805.000
19.13678 780.000
19.15706 813.000
19.17734 845.000
19.19762 836.000
19.21790 932.000
19.23818 975.000
19.25846 1050.000
19.27874 1155.000
19.29902 1161.000
19.31930 1328.000
19.33958 1413.000
19.35986 1486.000
19.38014 1625.000
19.40042 1884.000
19.42070 2153.000
19.44098 2357.000
19.46126 2660.000
19.48154 2825.000
19.50182 2792.000
19.52210 2517.000
19.54238 2201.000
19.56266 2018.000
19.58294 1700.000
19.60322 1532.000
19.62350 1580.000
19.64378 1729.000
19.66406 1901.000
19.68434 2072.000
19.70462 2240.000
19.72490 2522.000
19.74518 2634.000
19.76546 2677.000
19.78574 2643.000
19.80602 2455.000
19.82630 2251.000
19.84658 2170.000
19.86686 2124.000
19.88714 2230.000
19.90742 2535.000
19.92770 3008.000
19.94798 3229.000
19.96826 3628.000
19.98854 4073.000
20.00882 4472.000
20.02910 4439.000
20.04938 4169.000
20.06966 3516.000
20.08995 2908.000
20.11023 2319.000
20.13051 2034.000
20.15079 1749.000
20.17107 1628.000
20.19135 1522.000
20.21163 1603.000
20.23191 1553.000
20.25219 1614.000
20.27247 1721.000
20.29275 1790.000
20.31303 1948.000
20.33331 1949.000
20.35359 1893.000
20.37387 1864.000
20.39415 1673.000
20.41443 1622.000
20.43471 1599.000
20.45499 1709.000
20.47527 1787.000
20.49555 1959.000
20.51583 2248.000
20.53611 2549.000
20.55639 2910.000
20.57667 3359.000
20.59695 3507.000
20.61723 3476.000
20.63751 3079.000
20.65779 2731.000
20.67807 2157.000
20.69835 1698.000
20.71863 1377.000
20.73891 1093.000
20.75919 989.000
20.77947 951.000
20.79975 866.000
20.82003 945.000
20.84031 1010.000
20.86059 1001.000
20.88087 1032.000
20.90115 1048.000
20.92143 1024.000
20.94171 1037.000
20.96199 976.000
20.98227 944.000
21.00255 860.000
21.02283 819.000
21.04311 822.000
21.06339 814.000
21.08367 819.000
21.10395 874.000
21.12423 930.000
21.14451 914.000
21.16479 1054.000
21.18507 1133.000
21.20535 1250.000
21.22563 1312.000
21.24591 1421.000
21.26619 1574.000
21.28647 1617.000
21.30675 1719.000
21.32703 1957.000
21.34731 2188.000
21.36759 2350.000
21.38787 2801.000
21.40815 3041.000
21.42843 3264.000
21.44871 3451.000
21.46899 3448.000
21.48927 3398.000
21.50955 3337.000
21.52983 3447.000
21.55011 3584.000
21.57039 3789.000
21.59067 4315.000
21.61095 4646.000
21.63123 5215.000
21.65151 5559.000
21.67179 5405.000
21.69207 4932.000
21.71235 4298.000
21.73263 3297.000
21.75291 2541.000
21.77319 1966.000
21.79347 1485.000
21.81375 1262.000
21.83403 1182.000
21.85431 1036.000
21.87459 1067.000
21.89487 1018.000
21.91515 1071.000
21.93543 1123.000
21.95571 1082.000
21.97599 1195.000
21.99628 1210.000
22.01656 1322.000
22.03684 1403.000
22.05712 1514.000
22.07740 1617.000
22.09768 1768.000
22.11796 2063.000
22.13824 2304.000
22.15852 2300.000
22.17880 2436.000
22.19908 2158.000
22.21936 1909.000
22.23964 1572.000
22.25992 1228.000
22.28020 1013.000
22.30048 924.000
22.32076 846.000
22.34104 820.000
22.36132 774.000
22.38160 811.000
22.40188 809.000
22.42216 817.000
22.44244 839.000
22.46272 847.000
22.48300 976.000
22.50328 991.000
22.52356 988.000
22.54384 1051.000
22.56412 1056.000
22.58440 1048.000
22.60468 1134.000
22.62496 1103.000
22.64524 1231.000
22.66552 1331.000
22.68580 1436.000
22.70608 1545.000
22.72636 1594.000
22.74664 1482.000
22.76692 1358.000
22.78720 1318.000
22.80748 1116.000
22.82776 1005.000
22.84804 887.000
22.86832 818.000
22.88860 754.000
22.90888 723.000
22.92916 718.000
22.94944 783.000
22.96972 831.000
22.99000 835.000
23.01028 821.000
23.03056 909.000
23.05084 911.000
23.07112 856.000
23.09140 785.000
23.11168 776.000
23.13196 742.000
23.15224 685.000
23.17252 689.000
23.19280 700.000
23.21308 773.000
23.23336 743.000
23.25364 831.000
23.27392 879.000
23.29420 932.000
23.31448 1037.000
23.33476 1092.000
23.35504 1220.000
23.37532 1362.000
23.39560 1578.000
23.41588 1585.000
23.43616 1606.000
23.45644 1533.000
23.47672 1397.000
23.49700 1290.000
23.51728 1220.000
23.53756 1013.000
23.55784 1047.000
23.57812 1018.000
23.59840 975.000
23.61868 1078.000
23.63896 1069.000
23.65924 1090.000
23.67952 1075.000
23.69980 1056.000
23.72008 982.000
23.74036 979.000
23.76064 902.000
23.78092 911.000
23.80120 925.000
23.82148 928.000
23.84176 1020.000
23.86204 1078.000
23.88232 1177.000
23.90261 1189.000
23.92289 1202.000
23.94317 1300.000
23.96345 1167.000
23.98373 1183.000
24.00401 1262.000
24.02429 1304.000
24.04457 1281.000
24.06485 1256.000
24.08513 1172.000
24.10541 1252.000
24.12569 1273.000
24.14597 1354.000
24.16625 1445.000
24.18653 1280.000
24.20681 1178.000
24.22709 1147.000
24.24737 1039.000
24.26765 940.000
24.28793 929.000
24.30821 920.000
24.32849 904.000
24.34877 951.000
24.36905 1030.000
24.38933 1034.000
24.40961 1131.000
24.42989 1102.000
24.45017 1061.000
24.47045 905.000
24.49073 854.000
24.51101 847.000
24.53129 767.000
24.55157 728.000
24.57185 753.000
24.59213 848.000
24.61241 886.000
24.63269 956.000
24.65297 1043.000
24.67325 1139.000
24.69353 1285.000
24.71381 1310.000
24.73409 1325.000
24.75437 1443.000
24.77465 1261.000
24.79493 1139.000
24.81521 1158.000
24.83549 1118.000
24.85577 935.000
24.87605 875.000
24.89633 845.000
24.91661 779.000
24.93689 717.000
24.95717 727.000
24.97745 686.000
24.99773 644.000
25.01801 742.000
25.03829 681.000
25.05857 802.000
25.07885 840.000
25.09913 899.000
25.11941 1002.000
25.13969 1133.000
25.15997 1310.000
25.18025 1373.000
25.20053 1593.000
25.22081 1699.000
25.24109 1958.000
25.26137 2123.000
25.28165 2335.000
25.30193 2419.000
25.32221 2587.000
25.34249 2384.000
25.36277 2178.000
25.38305 2017.000
25.40333 1800.000
25.42361 1553.000
25.44389 1415.000
25.46417 1302.000
25.48445 1148.000
25.50473 987.000
25.52501 872.000
25.54529 868.000
25.56557 775.000
25.58585 736.000
25.60613 763.000
25.62641 808.000
25.64669 835.000
25.66697 790.000
25.68725 940.000
25.70753 930.000
25.72781 1154.000
25.74809 1086.000
25.76837 1256.000
25.78865 1180.000
25.80893 1304.000
25.82922 1167.000
25.84950 1094.000
25.86978 1102.000
25.89006 1061.000
25.91034 946.000
25.93062 1017.000
25.95090 1078.000
25.97118 1079.000
25.99146 1136.000
26.01174 1251.000
26.03202 1358.000
26.05230 1494.000
26.07258 1628.000
26.09286 1542.000
26.11314 1655.000
26.13342 1549.000
26.15370 1412.000
26.17398 1428.000
26.19426 1306.000
26.21454 1180.000
26.23482 1163.000
26.25510 1163.000
26.27538 1172.000
26.29566 1239.000
26.31594 1267.000
26.33622 1119.000
26.35650 1161.000
26.37678 1079.000
26.39706 1123.000
26.41734 1176.000
26.43762 1151.000
26.45790 1124.000
26.47818 1252.000
26.49846 1092.000
26.51874 1049.000
26.53902 1007.000
26.55930 864.000
26.57958 764.000
26.59986 720.000
26.62014 666.000
26.64042 637.000
26.66070 645.000
26.68098 628.000
26.70126 591.000
26.72154 654.000
26.74182 663.000
26.76210 673.000
26.78238 748.000
26.80266 730.000
26.82294 814.000
26.84322 870.000
26.86350 888.000
26.88378 959.000
26.90406 1023.000
26.92434 928.000
26.94462 889.000
26.96490 758.000
26.98518 760.000
27.00546 646.000
27.02574 596.000
27.04602 588.000
27.06630 597.000
27.08658 543.000
27.10686 518.000
27.12714 521.000
27.14742 537.000
27.16770 538.000
27.18798 546.000
27.20826 523.000
27.22854 572.000
27.24882 560.000
27.26910 603.000
27.28938 669.000
27.30966 673.000
27.32994 646.000
27.35022 628.000
27.37050 693.000
27.39078 634.000
27.41106 601.000
27.43134 677.000
27.45162 657.000
27.47190 705.000
27.49218 681.000
27.51246 708.000
27.53274 756.000
27.55302 630.000
27.57330 592.000
27.59358 582.000
27.61386 573.000
27.63414 514.000
27.65442 444.000
27.67470 494.000
27.69498 430.000
27.71526 432.000
27.73555 433.000
27.75583 472.000
27.77611 463.000
27.79639 432.000
27.81667 443.000
27.83695 441.000
27.85723 471.000
27.87751 447.000
27.89779 433.000
27.91807 488.000
27.93835 519.000
27.95863 468.000
27.97891 488.000
27.99919 514.000
28.01947 507.000
28.03975 433.000
28.06003 482.000
28.08031 468.000
28.10059 449.000
28.12087 455.000
28.14115 510.000
28.16143 464.000
28.18171 466.000
28.20199 478.000
28.22227 487.000
28.24255 551.000
28.26283 573.000
28.28311 583.000
28.30339 576.000
28.32367 683.000
28.34395 708.000
28.36423 797.000
28.38451 804.000
28.40479 939.000
28.42507 960.000
28.44535 1105.000
28.46563 1154.000
28.48591 1259.000
28.50619 1425.000
28.52647 1429.000
28.54675 1565.000
28.56703 1585.000
28.58731 1431.000
28.60759 1489.000
28.62787 1417.000
28.64815 1329.000
28.66843 1186.000
28.68871 1159.000
28.70899 1141.000
28.72927 1073.000
28.74955 1028.000
28.76983 940.000
28.79011 846.000
28.81039 750.000
28.83067 698.000
28.85095 653.000
28.87123 586.000
28.89151 577.000
28.91179 528.000
28.93207 517.000
28.95235 500.000
28.97263 502.000
28.99291 518.000
29.01319 510.000
29.03347 523.000
29.05375 510.000
29.07403 537.000
29.09431 515.000
29.11459 525.000
29.13487 570.000
29.15515 582.000
29.17543 553.000
29.19571 547.000
29.21599 569.000
29.23627 524.000
29.25655 548.000
29.27683 558.000
29.29711 474.000
29.31739 492.000
29.33767 477.000
29.35795 464.000
29.37823 487.000
29.39851 457.000
29.41879 475.000
29.43907 440.000
29.45935 493.000
29.47963 514.000
29.49991 529.000
29.52019 512.000
29.54047 549.000
29.56075 612.000
29.58103 630.000
29.60131 677.000
29.62159 753.000
29.64188 816.000
29.66216 885.000
29.68244 880.000
29.70272 1015.000
29.72300 1054.000
29.74328 1103.000
29.76356 1149.000
29.78384 1231.000
29.80412 1266.000
29.82440 1152.000
29.84468 1167.000
29.86496 1104.000
29.88524 1027.000
29.90552 1012.000
29.92580 1045.000
29.94608 1005.000
29.96636 970.000
29.98664 988.000
30.00692 1025.000
30.02720 1125.000
30.04748 1060.000
30.06776 1009.000
30.08804 1015.000
30.10832 963.000
30.12860 902.000
30.14888 913.000
30.16916 864.000
30.18944 811.000
30.20972 796.000
30.23000 806.000
30.25028 766.000
30.27056 707.000
30.29084 700.000
30.31112 669.000
30.33140 680.000
30.35168 679.000
30.37196 672.000
30.39224 586.000
30.41252 588.000
30.43280 545.000
30.45308 504.000
30.47336 463.000
30.49364 469.000
30.51392 426.000
30.53420 450.000
30.55448 447.000
30.57476 422.000
30.59504 390.000
30.61532 457.000
30.63560 496.000
30.65588 510.000
30.67616 501.000
30.69644 490.000
30.71672 521.000
30.73700 559.000
30.75728 507.000
30.77756 522.000
30.79784 519.000
30.81812 582.000
30.83840 581.000
30.85868 536.000
30.87896 577.000
30.89924 600.000
30.91952 609.000
30.93980 595.000
30.96008 563.000
30.98036 582.000
31.00064 542.000
31.02092 542.000
31.04120 528.000
31.06148 554.000
31.08176 593.000
31.10204 553.000
31.12232 548.000
31.14260 638.000
31.16288 556.000
31.18316 654.000
31.20344 640.000
31.22372 689.000
31.24400 691.000
31.26428 723.000
31.28456 732.000
31.30484 755.000
31.32512 804.000
31.34540 782.000
31.36568 794.000
31.38596 790.000
31.40624 792.000
31.42652 785.000
31.44680 804.000
31.46708 801.000
31.48736 815.000
31.50764 874.000
31.52792 1016.000
31.54821 1007.000
31.56849 1075.000
31.58877 1105.000
31.60905 1147.000
31.62933 1207.000
31.64961 1222.000
31.66989 1176.000
31.69017 1127.000
31.71045 991.000
31.73073 986.000
31.75101 903.000
31.77129 888.000
31.79157 831.000
31.81185 825.000
31.83213 724.000
31.85241 721.000
31.87269 726.000
31.89297 683.000
31.91325 717.000
31.93353 752.000
31.95381 772.000
31.97409 794.000
31.99437 802.000
32.01465 783.000
32.03493 862.000
32.05521 789.000
32.07549 782.000
32.09577 684.000
32.11605 677.000
32.13633 660.000
32.15661 583.000
32.17689 607.000
32.19717 538.000
32.21745 548.000
32.23773 548.000
32.25801 502.000
32.27829 522.000
32.29857 515.000
32.31885 543.000
32.33913 505.000
32.35941 584.000
32.37969 612.000
32.39997 572.000
32.42025 558.000
32.44053 549.000
32.46081 510.000
32.48109 495.000
32.50137 495.000
32.52165 494.000
32.54193 472.000
32.56221 429.000
32.58249 473.000
32.60277 494.000
32.62305 471.000
32.64333 444.000
32.66361 476.000
32.68389 435.000
32.70417 412.000
32.72445 464.000
32.74473 415.000
32.76501 421.000
32.78529 440.000
32.80557 463.000
32.82585 431.000
32.84613 419.000
32.86641 449.000
32.88669 485.000
32.90697 430.000
32.92725 480.000
32.94753 514.000
32.96781 491.000
32.98809 512.000
33.00837 583.000
33.02865 565.000
33.04893 597.000
33.06921 655.000
33.08949 633.000
33.10977 655.000
33.13005 677.000
33.15033 656.000
33.17061 604.000
33.19089 608.000
33.21117 609.000
33.23145 537.000
33.25173 494.000
33.27201 495.000
33.29229 505.000
33.31257 498.000
33.33285 498.000
33.35313 470.000
33.37341 510.000
33.39369 541.000
33.41397 488.000
33.43425 544.000
33.45454 524.000
33.47482 506.000
33.49510 526.000
33.51538 543.000
33.53566 558.000
33.55594 600.000
33.57622 588.000
33.59650 615.000
33.61678 647.000
33.63706 670.000
33.65734 644.000
33.67762 652.000
33.69790 568.000
33.71818 579.000
33.73846 532.000
33.75874 565.000
33.77902 517.000
33.79930 483.000
33.81958 463.000
33.83986 476.000
33.86014 463.000
33.88042 474.000
33.90070 445.000
33.92098 445.000
33.94126 434.000
33.96154 423.000
33.98182 436.000
34.00210 413.000
34.02238 439.000
34.04266 412.000
34.06294 431.000
34.08322 430.000
34.10350 428.000
34.12378 479.000
34.14406 450.000
34.16434 433.000
34.18462 479.000
34.20490 415.000
34.22518 414.000
34.24546 399.000
34.26574 383.000
34.28602 424.000
34.30630 433.000
34.32658 389.000
34.34686 385.000
34.36714 392.000
34.38742 400.000
34.40770 378.000
34.42798 405.000
34.44826 375.000
34.46854 395.000
34.48882 428.000
34.50910 426.000
34.52938 442.000
34.54966 442.000
34.56994 449.000
34.59022 478.000
34.61050 549.000
34.63078 493.000
34.65106 509.000
34.67134 493.000
34.69162 490.000
34.71190 530.000
34.73218 604.000
34.75246 538.000
34.77274 547.000
34.79302 536.000
34.81330 604.000
34.83358 553.000
34.85386 592.000
34.87414 632.000
34.89442 645.000
34.91470 700.000
34.93498 716.000
34.95526 717.000
34.97554 775.000
34.99582 765.000
35.01610 792.000
35.03638 787.000
35.05666 807.000
35.07694 814.000
35.09722 769.000
35.11750 675.000
35.13778 643.000
35.15806 614.000
35.17834 674.000
35.19862 680.000
35.21890 656.000
35.23918 691.000
35.25946 701.000
35.27974 723.000
35.30002 742.000
35.32030 675.000
35.34058 631.000
35.36087 612.000
35.38115 575.000
35.40143 538.000
35.42171 511.000
35.44199 472.000
35.46227 431.000
35.48255 467.000
35.50283 414.000
35.52311 427.000
35.54339 447.000
35.56367 425.000
35.58395 465.000
35.60423 449.000
35.62451 428.000
35.64479 395.000
35.66507 408.000
35.68535 422.000
35.70563 415.000
35.72591 401.000
35.74619 403.000
35.76647 398.000
35.78675 431.000
35.80703 421.000
35.82731 460.000
35.84759 507.000
35.86787 520.000
35.88815 500.000
35.90843 562.000
35.92871 507.000
35.94899 494.000
35.96927 556.000
35.98955 547.000
36.00983 614.000
36.03011 671.000
36.05039 648.000
36.07067 637.000
36.09095 699.000
36.11123 667.000
36.13151 730.000
36.15179 750.000
36.17207 776.000
36.19235 824.000
36.21263 760.000
36.23291 827.000
36.25319 761.000
36.27347 795.000
36.29375 741.000
36.31403 760.000
36.33431 655.000
36.35459 634.000
36.37487 598.000
36.39515 596.000
36.41543 591.000
36.43571 573.000
36.45599 578.000
36.47627 485.000
36.49655 513.000
36.51683 507.000
36.53711 451.000
36.55739 475.000
36.57767 471.000
36.59795 457.000
36.61823 520.000
36.63851 510.000
36.65879 452.000
36.67907 466.000
36.69935 471.000
36.71963 489.000
36.73991 495.000
36.76019 508.000
36.78047 469.000
36.80075 466.000
36.82103 457.000
36.84131 462.000
36.86159 440.000
36.88187 418.000
36.90215 393.000
36.92243 424.000
36.94271 429.000
36.96299 388.000
36.98327 441.000
37.00355 445.000
37.02383 420.000
37.04411 451.000
37.06439 455.000
37.08467 486.000
37.10495 519.000
37.12523 520.000
37.14551 571.000
37.16579 529.000
37.18607 582.000
37.20635 559.000
37.22663 564.000
37.24691 555.000
37.26720 582.000
37.28748 569.000
37.30776 545.000
37.32804 550.000
37.34832 495.000
37.36860 529.000
37.38888 471.000
37.40916 480.000
37.42944 444.000
37.44972 433.000
37.47000 410.000
37.49028 427.000
37.51056 422.000
37.53084 412.000
37.55112 426.000
37.57140 407.000
37.59168 371.000
37.61196 408.000
37.63224 401.000
37.65252 391.000
37.67280 384.000
37.69308 381.000
37.71336 391.000
37.73364 427.000
37.75392 475.000
37.77420 428.000
37.79448 484.000
37.81476 431.000
37.83504 478.000
37.85532 498.000
37.87560 479.000
37.89588 542.000
37.91616 544.000
37.93644 519.000
37.95672 531.000
37.97700 570.000
37.99728 468.000
38.01756 506.000
38.03784 505.000
38.05812 499.000
38.07840 490.000
38.09868 510.000
38.11896 508.000
38.13924 494.000
38.15952 506.000
38.17980 465.000
38.20008 530.000
38.22036 509.000
38.24064 533.000
38.26092 561.000
38.28120 570.000
38.30148 579.000
38.32176 582.000
38.34204 573.000
38.36232 581.000
38.38260 578.000
38.40288 607.000
38.42316 599.000
38.44344 524.000
38.46372 537.000
38.48400 573.000
38.50428 532.000
38.52456 522.000
38.54484 501.000
38.56512 497.000
38.58540 455.000
38.60568 495.000
38.62596 452.000
38.64624 487.000
38.66652 427.000
38.68680 463.000
38.70708 454.000
38.72736 460.000
38.74764 540.000
38.76792 467.000
38.78820 497.000
38.80848 514.000
38.82876 507.000
38.84904 550.000
38.86932 567.000
38.88960 594.000
38.90988 579.000
38.93016 626.000
38.95044 628.000
38.97072 622.000
38.99100 684.000
39.01128 640.000
39.03156 668.000
39.05184 639.000
39.07212 651.000
39.09240 612.000
39.11268 545.000
39.13296 546.000
39.15324 510.000
39.17353 523.000
39.19381 491.000
39.21409 451.000
39.23437 461.000
39.25465 494.000
39.27493 491.000
39.29521 449.000
39.31549 486.000
39.33577 466.000
39.35605 446.000
39.37633 511.000
39.39661 456.000
39.41689 467.000
39.43717 499.000
39.45745 505.000
39.47773 474.000
39.49801 500.000
39.51829 556.000
39.53857 517.000
39.55885 550.000
39.57913 533.000
39.59941 542.000
39.61969 524.000
39.63997 505.000
39.66025 481.000
39.68053 471.000
39.70081 473.000
39.72109 464.000
39.74137 457.000
39.76165 448.000
39.78193 453.000
39.80221 475.000
39.82249 449.000
39.84277 449.000
39.86305 462.000
39.88333 454.000
39.90361 459.000
39.92389 459.000
39.94417 489.000
39.96445 492.000
39.98473 492.000
40.00501 508.000
40.02529 513.000
40.04557 510.000
40.06585 510.000
40.08613 516.000
40.10641 496.000
40.12669 538.000
40.14697 548.000
40.16725 493.000
40.18753 506.000
40.20781 517.000
40.22809 525.000
40.24837 536.000
40.26865 551.000
40.28893 546.000
40.30921 636.000
40.32949 611.000
40.34977 597.000
40.37005 616.000
40.39033 641.000
40.41061 698.000
40.43089 698.000
40.45117 736.000
40.47145 801.000
40.49173 783.000
40.51201 746.000
40.53229 813.000
40.55257 750.000
40.57285 731.000
40.59313 785.000
40.61341 666.000
40.63369 626.000
40.65397 674.000
40.67425 570.000
40.69453 564.000
40.71481 588.000
40.73509 506.000
40.75537 529.000
40.77565 471.000
40.79593 465.000
40.81621 467.000
40.83649 449.000
40.85677 462.000
40.87705 414.000
40.89733 482.000
40.91761 450.000
40.93789 432.000
40.95817 454.000
40.97845 453.000
40.99873 469.000
41.01901 462.000
41.03929 451.000
41.05957 448.000
41.07986 446.000
41.10014 511.000
41.12042 447.000
41.14070 498.000
41.16098 449.000
41.18126 454.000
41.20154 441.000
41.22182 466.000
41.24210 472.000
41.26238 519.000
41.28266 468.000
41.30294 479.000
41.32322 461.000
41.34350 433.000
41.36378 426.000
41.38406 452.000
41.40434 423.000
41.42462 414.000
41.44490 406.000
41.46518 445.000
41.48546 380.000
41.50574 412.000
41.52602 398.000
41.54630 377.000
41.56658 381.000
41.58686 410.000
41.60714 387.000
41.62742 403.000
41.64770 441.000
41.66798 406.000
41.68826 470.000
41.70854 408.000
41.72882 432.000
41.74910 428.000
41.76938 480.000
41.78966 435.000
41.80994 415.000
41.83022 411.000
41.85050 409.000
41.87078 405.000
41.89106 389.000
41.91134 358.000
41.93162 370.000
41.95190 382.000
41.97218 369.000
41.99246 367.000
42.01274 357.000
42.03302 381.000
42.05330 362.000
42.07358 350.000
42.09386 369.000
42.11414 397.000
42.13442 365.000
42.15470 396.000
42.17498 403.000
42.19526 364.000
42.21554 356.000
42.23582 363.000
42.25610 381.000
42.27638 390.000
42.29666 408.000
42.31694 391.000
42.33722 416.000
42.35750 401.000
42.37778 410.000
42.39806 431.000
42.41834 433.000
42.43862 446.000
42.45890 464.000
42.47918 487.000
42.49946 465.000
42.51974 481.000
42.54002 477.000
42.56030 409.000
42.58058 456.000
42.60086 478.000
42.62114 455.000
42.64142 461.000
42.66170 439.000
42.68198 449.000
42.70226 434.000
42.72254 424.000
42.74282 416.000
42.76310 408.000
42.78338 465.000
42.80366 412.000
42.82394 405.000
42.84422 413.000
42.86450 373.000
42.88478 413.000
42.90506 424.000
42.92534 391.000
42.94562 376.000
42.96590 444.000
42.98619 417.000
43.00647 438.000
43.02675 464.000
43.04703 434.000
43.06731 463.000
43.08759 458.000
43.10787 460.000
43.12815 511.000
43.14843 471.000
43.16871 500.000
43.18899 495.000
43.20927 508.000
43.22955 522.000
43.24983 481.000
43.27011 467.000
43.29039 467.000
43.31067 428.000
43.33095 444.000
43.35123 419.000
43.37151 454.000
43.39179 506.000
43.41207 473.000
43.43235 451.000
43.45263 478.000
43.47291 460.000
43.49319 463.000
43.51347 490.000
43.53375 466.000
43.55403 472.000
43.57431 474.000
43.59459 475.000
43.61487 491.000
43.63515 484.000
43.65543 468.000
43.67571 462.000
43.69599 483.000
43.71627 476.000
43.73655 471.000
43.75683 468.000
43.77711 504.000
43.79739 500.000
43.81767 447.000
43.83795 514.000
43.85823 457.000
43.87851 421.000
43.89879 487.000
43.91907 446.000
43.93935 455.000
43.95963 464.000
43.97991 451.000
44.00019 437.000
44.02047 481.000
44.04075 460.000
44.06103 419.000
44.08131 416.000
44.10159 430.000
44.12187 440.000
44.14215 444.000
44.16243 527.000
44.18271 458.000
44.20299 517.000
44.22327 478.000
44.24355 503.000
44.26383 488.000
44.28411 545.000
44.30439 564.000
44.32467 531.000
44.34495 601.000
44.36523 602.000
44.38551 598.000
44.40579 589.000
44.42607 543.000
44.44635 610.000
44.46663 600.000
44.48691 644.000
44.50719 630.000
44.52747 559.000
44.54775 583.000
44.56803 587.000
44.58831 572.000
44.60859 545.000
44.62887 510.000
44.64915 557.000
44.66943 571.000
44.68971 580.000
44.70999 587.000
44.73027 536.000
44.75055 512.000
44.77083 520.000
44.79111 534.000
44.81139 495.000
44.83167 517.000
44.85195 526.000
44.87223 513.000
44.89251 491.000
44.91280 443.000
44.93308 453.000
44.95336 488.000
44.97364 443.000
44.99392 468.000
45.01420 456.000
45.03448 468.000
45.05476 471.000
45.07504 441.000
45.09532 476.000
45.11560 496.000
45.13588 515.000
45.15616 450.000
45.17644 455.000
45.19672 513.000
45.21700 472.000
45.23728 473.000
45.25756 473.000
45.27784 459.000
45.29812 472.000
45.31840 473.000
45.33868 498.000
45.35896 497.000
45.37924 492.000
45.39952 453.000
45.41980 482.000
45.44008 488.000
45.46036 509.000
45.48064 492.000
45.50092 467.000
45.52120 467.000
45.54148 458.000
45.56176 506.000
45.58204 487.000
45.60232 449.000
45.62260 444.000
45.64288 437.000
45.66316 445.000
45.68344 460.000
45.70372 461.000
45.72400 405.000
45.74428 455.000
45.76456 457.000
45.78484 416.000
45.80512 452.000
45.82540 418.000
45.84568 454.000
45.86596 418.000
45.88624 434.000
45.90652 431.000
45.92680 417.000
45.94708 454.000
45.96736 417.000
45.98764 428.000
46.00792 463.000
46.02820 432.000
46.04848 479.000
46.06876 476.000
46.08904 457.000
46.10932 449.000
46.12960 463.000
46.14988 441.000
46.17016 480.000
46.19044 443.000
46.21072 465.000
46.23100 501.000
46.25128 516.000
46.27156 494.000
46.29184 475.000
46.31212 483.000
46.33240 472.000
46.35268 492.000
46.37296 501.000
46.39324 479.000
46.41352 533.000
46.43380 509.000
46.45408 531.000
46.47436 553.000
46.49464 533.000
46.51492 523.000
46.53520 523.000
46.55548 547.000
46.57576 544.000
46.59604 497.000
46.61632 534.000
46.63660 495.000
46.65688 516.000
46.67716 454.000
46.69744 490.000
46.71772 481.000
46.73800 477.000
46.75828 474.000
46.77856 445.000
46.79884 432.000
46.81913 451.000
46.83941 412.000
46.85969 413.000
46.87997 415.000
46.90025 421.000
46.92053 416.000
46.94081 423.000
46.96109 436.000
46.98137 454.000
47.00165 430.000
47.02193 436.000
47.04221 404.000
47.06249 445.000
47.08277 431.000
47.10305 389.000
47.12333 419.000
47.14361 429.000
47.16389 427.000
47.18417 410.000
47.20445 439.000
47.22473 450.000
47.24501 451.000
47.26529 401.000
47.28557 405.000
47.30585 460.000
47.32613 472.000
47.34641 459.000
47.36669 473.000
47.38697 494.000
47.40725 435.000
47.42753 486.000
47.44781 449.000
47.46809 467.000
47.48837 446.000
47.50865 447.000
47.52893 433.000
47.54921 440.000
47.56949 447.000
47.58977 439.000
47.61005 477.000
47.63033 456.000
47.65061 456.000
47.67089 443.000
47.69117 480.000
47.71145 414.000
47.73173 405.000
47.75201 392.000
47.77229 414.000
47.79257 463.000
47.81285 445.000
47.83313 440.000
47.85341 453.000
47.87369 480.000
47.89397 493.000
47.91425 423.000
47.93453 442.000
47.95481 439.000
47.97509 442.000
47.99537 442.000
48.01565 448.000
48.03593 457.000
48.05621 460.000
48.07649 423.000
48.09677 418.000
48.11705 440.000
48.13733 442.000
48.15761 422.000
48.17789 415.000
48.19817 425.000
48.21845 434.000
48.23873 455.000
48.25901 425.000
48.27929 459.000
48.29957 447.000
48.31985 423.000
48.34013 419.000
48.36041 452.000
48.38069 418.000
48.40097 444.000
48.42125 446.000
48.44153 433.000
48.46181 407.000
48.48209 415.000
48.50237 422.000
48.52265 383.000
48.54293 409.000
48.56321 376.000
48.58349 390.000
48.60377 389.000
48.62405 382.000
48.64433 435.000
48.66461 362.000
48.68489 392.000
48.70517 403.000
48.72546 398.000
48.74574 407.000
48.76602 402.000
48.78630 391.000
48.80658 404.000
48.82686 384.000
48.84714 444.000
48.86742 438.000
48.88770 392.000
48.90798 428.000
48.92826 429.000
48.94854 390.000
48.96882 394.000
48.98910 401.000
49.00938 473.000
49.02966 400.000
49.04994 442.000
49.07022 422.000
49.09050 428.000
49.11078 445.000
49.13106 429.000
49.15134 428.000
49.17162 434.000
49.19190 385.000
49.21218 375.000
49.23246 437.000
49.25274 387.000
49.27302 404.000
49.29330 392.000
49.31358 393.000
49.33386 410.000
49.35414 385.000
49.37442 395.000
49.39470 402.000
49.41498 388.000
49.43526 409.000
49.45554 377.000
49.47582 388.000
49.49610 368.000
49.51638 371.000
49.53666 409.000
49.55694 380.000
49.57722 339.000
49.59750 381.000
49.61778 371.000
49.63806 372.000
49.65834 371.000
49.67862 395.000
49.69890 372.000
49.71918 358.000
49.73946 418.000
49.75974 370.000
49.78002 428.000
49.80030 386.000
49.82058 412.000
49.84086 382.000
49.86114 378.000
49.88142 397.000
49.90170 408.000
49.92198 388.000
49.94226 356.000
49.96254 379.000
49.98282 349.000
50.00310 401.000
